CH1,CH2,CH3
1.759530792,67.06295517,-0.060606061
1.718475073,69.35862807,-0.075268817
1.684261975,75.36645289,-0.070381232
1.657869013,85.03758554,-0.035190616
1.637341153,96.22288542,0.024437928
1.615835777,105.9428622,0.089931574
1.593352884,112.9275691,0.154936461
1.57086999,117.6654472,0.204789834
1.549364614,120.9868463,0.249755621
1.52688172,123.184831,0.274682307
1.50342131,124.3570895,0.294721408
1.478983382,124.60131,0.304985337
1.453567937,124.1617131,0.309872923
1.428152493,123.2825192,0.319648094
1.402737048,122.0614166,0.319648094
1.377321603,120.5960934,0.325024438
1.357771261,118.7400175,0.325024438
1.34115347,116.6885651,0.325024438
1.323558162,114.2463599,0.325024438
1.305962854,111.6087783,0.319648094
1.288367546,108.8246643,0.319648094
1.271749756,105.6986416,0.329912023
1.258064516,102.2795543,0.35483871
1.24340176,98.76277884,0.369990225
1.228739003,95.00178281,0.390029326
1.212121212,91.4361632,0.424731183
1.193548387,88.11476411,0.450146628
1.173020528,85.42833837,0.459921799
1.158357771,83.4257301,0.424731183
1.152492669,82.00925107,0.359726295
1.158357771,81.03236899,0.289833822
1.189638319,80.49508384,0.254643206
1.260997067,80.15317511,0.249755621
1.37829912,79.86011049,0.249755621
1.541544477,79.66473407,0.23998045
1.738025415,79.46935765,0.244868035
1.954056696,79.32282534,0.424731183
2.171065494,78.98091661,0.990224829
2.370478983,78.68785198,1.445747801
2.539589443,78.29709915,1.070381232
2.672531769,77.80865811,0.379765396
2.761485826,77.17368475,0.094819159
2.824046921,76.53871139,0.074780059
2.875855327,75.90373804,0.099706745
2.906158358,75.31760879,0.11485826
2.917888563,74.68263543,0.124633431
2.914956012,74.04766208,0.129521017
2.899315738,73.51037693,0.139784946
2.871945259,73.07077999,0.144672532
2.832844575,72.63118305,0.149560117
2.781036168,72.24043022,0.154936461
2.716520039,71.84967738,0.164711632
2.641251222,71.50776865,0.164711632
2.565004888,71.11701582,0.164711632
2.485826002,70.72626299,0.159824047
2.392961877,70.28666605,0.154936461
2.292277615,69.79822501,0.144672532
2.189638319,69.35862807,0.124633431
2.089931574,68.91903113,0.094819159
1.996089932,68.47943419,0.059628543
1.913000978,67.99099315,0.014662757
1.840664712,67.4048639,-0.03030303
1.779081134,67.30717569,-0.065493646
1.729227761,68.43059009,-0.090420332
1.688172043,72.48465074,-0.095307918
1.654936461,80.29970742,-0.070381232
1.631476051,90.75234574,-0.020527859
1.612903226,100.9119194,0.044477028
1.593352884,108.8735084,0.109481916
1.572825024,114.3440481,0.159824047
1.551319648,118.0562,0.204789834
1.528836755,120.6937817,0.234604106
1.505376344,122.3544812,0.26001955
1.479960899,123.0382987,0.274682307
1.455522972,122.8429222,0.284946237
1.430107527,122.1102607,0.294721408
1.404692082,121.0356904,0.300097752
1.380254154,119.6680555,0.304985337
1.362658847,117.9096677,0.304985337
1.34799609,115.8582153,0.304985337
1.330400782,113.5136983,0.304985337
1.31085044,110.8761167,0.304985337
1.293255132,107.9943145,0.304985337
1.277614858,104.917136,0.304985337
1.261974585,101.5957369,0.325024438
1.247311828,98.17664959,0.349951124
1.231671554,94.61102998,0.365102639
1.215053763,91.04541036,0.394916911
1.196480938,87.87054359,0.424731183
1.173998045,85.18411785,0.439882698
1.151515152,83.13266547,0.424731183
1.136852395,81.66734234,0.365102639
1.135874878,80.59277205,0.294721408
1.153470186,79.86011049,0.249755621
1.205278592,79.42051355,0.23998045
1.301075269,79.12744892,0.23998045
1.444770283,78.8832284,0.234604106
1.630498534,78.59016377,0.224828935
1.84457478,78.34594325,0.304985337
2.06744868,78.10172273,0.730205279
2.28054741,77.80865811,1.320625611
2.468230694,77.41790527,1.400782014
2.62170088,76.97830833,0.560117302
2.727272727,76.53871139,0.124633431
2.795698925,76.09911446,0.069892473
2.846529814,75.56182931,0.08455523
2.877810362,74.97570006,0.10459433
2.890518084,74.3407267,0.119745846
2.88856305,73.80344156,0.124633431
2.87487781,73.2173123,0.134897361
2.850439883,72.68002716,0.139784946
2.815249267,72.24043022,0.144672532
2.766373412,71.80083328,0.149560117
2.705767351,71.41008045,0.154936461
2.633431085,71.06817172,0.149560117
2.551319648,70.72626299,0.144672532
2.471163245,70.38435426,0.134897361
2.389051808,69.94475732,0.134897361
2.296187683,69.50516038,0.124633431
2.198435973,68.96787523,0.099706745
2.101661779,68.43059009,0.069892473
2.009775171,67.94214904,0.024437928
1.9257087,67.4048639,-0.025415445
1.8514174,66.91642285,-0.070381232
1.786901271,66.52567002,-0.105571848
1.732160313,66.96526696,-0.140273705
1.687194526,69.55400448,-0.150537634
1.649071359,75.75720573,-0.140273705
1.620723363,85.28180606,-0.100195503
1.599217986,95.88097669,-0.045454545
1.578690127,104.7217596,0.009775171
1.557184751,110.9738049,0.059628543
1.535679374,115.0767097,0.099706745
1.515151515,117.9096677,0.129521017
1.494623656,119.8145878,0.149560117
1.47311828,120.7914699,0.169599218
1.450635386,120.9868463,0.184750733
1.428152493,120.4495611,0.189638319
1.403714565,119.4726791,0.189638319
1.377321603,118.1050441,0.189638319
1.351906158,116.4443446,0.189638319
1.333333333,114.3440481,0.189638319
1.31769306,111.9995311,0.189638319
1.300097752,109.3131054,0.189638319
1.282502444,106.3824591,0.184750733
1.265884653,103.2564364,0.189638319
1.250244379,99.93503734,0.209677419
1.23655914,96.41826183,0.22971652
1.2228739,92.80379812,0.249755621
1.207233627,89.23817851,0.284946237
1.189638319,86.06331173,0.314760508
1.168132942,83.4257301,0.325024438
1.144672532,81.42312182,0.289833822
1.128054741,79.86011049,0.224828935
1.121212121,78.78554019,0.169599218
1.127077224,78.05287863,0.144672532
1.159335288,77.56443758,0.144672532
1.231671554,77.17368475,0.139784946
1.350928641,76.78293192,0.124633431
1.516129032,76.53871139,0.129521017
1.715542522,76.29449087,0.294721408
1.930596285,76.05027035,0.820136852
2.143695015,75.75720573,1.180351906
2.337243402,75.415297,0.745356794
2.499511241,75.17107648,0.134897361
2.625610948,74.78032364,-0.045454545
2.708699902,74.43841491,-0.020527859
2.759530792,73.90112976,0.004398827
2.791788856,73.41268872,0.024437928
2.80742913,72.92424768,0.039589443
2.808406647,72.43580664,0.044477028
2.795698925,71.9962097,0.044477028
2.77028348,71.50776865,0.054740958
2.734115347,71.11701582,0.059628543
2.687194526,70.72626299,0.059628543
2.629521017,70.48204247,0.064516129
2.560117302,70.18897784,0.064516129
2.479960899,69.79822501,0.059628543
2.401759531,69.50516038,0.054740958
2.322580645,69.06556344,0.054740958
2.230694037,68.6259665,0.049853372
2.132942326,68.03983725,0.029814272
2.036168133,67.55139621,-0.000488759
1.942326491,66.96526696,-0.035190616
1.856304985,66.42798181,-0.080645161
1.780058651,65.93954077,-0.120234604
1.715542522,65.59763204,-0.15542522
1.661779081,66.13491718,-0.170576735
1.616813294,68.72365471,-0.175464321
1.581622678,74.97570006,-0.150537634
1.556207234,84.5979886,-0.100195503
1.536656891,95.19715923,-0.04056696
1.517106549,103.8425657,0.024437928
1.49657869,109.8503905,0.069892473
1.475073314,113.806763,0.109481916
1.451612903,116.4443446,0.139784946
1.427174976,117.9096677,0.164711632
1.401759531,118.3492647,0.184750733
1.375366569,118.0562,0.199902248
1.348973607,117.0304738,0.209677419
1.322580645,115.7605271,0.209677419
1.298142717,114.0998276,0.214565005
1.27370479,112.2437516,0.224828935
1.256109482,110.094611,0.22971652
1.242424242,107.750094,0.22971652
1.226783969,105.1613565,0.22971652
1.212121212,102.3772426,0.23998045
1.198435973,99.34890809,0.269794721
1.18572825,96.17404131,0.289833822
1.173998045,92.80379812,0.309872923
1.16226784,89.48239903,0.349951124
1.149560117,86.35637635,0.38514174
1.133919844,83.81648293,0.394916911
1.114369501,81.81387466,0.369990225
1.090909091,80.49508384,0.304985337
1.0742913,79.56704586,0.249755621
1.066471163,78.9320725,0.219941349
1.070381232,78.49247557,0.219941349
1.100684262,78.19941094,0.224828935
1.172043011,77.85750221,0.22971652
1.290322581,77.46674938,0.219941349
1.454545455,77.22252885,0.359726295
1.65200391,76.92946423,0.88514174
1.867057674,76.68524371,1.345552297
2.080156403,76.34333498,1.015151515
2.27370479,75.90373804,0.339687195
2.436950147,75.56182931,0.074780059
2.563049853,75.12223237,0.064516129
2.644183773,74.68263543,0.099706745
2.692082111,74.19419439,0.11485826
2.720430108,73.65690924,0.124633431
2.730205279,73.2173123,0.134897361
2.725317693,72.87540357,0.144672532
2.706744868,72.48465074,0.149560117
2.676441838,72.09389791,0.154936461
2.635386119,71.75198918,0.164711632
2.583577713,71.41008045,0.164711632
2.521994135,71.11701582,0.169599218
2.450635386,70.82395119,0.174975562
2.370478983,70.43319836,0.174975562
2.294232649,69.94475732,0.169599218
2.217986315,69.40747217,0.164711632
2.131964809,68.87018702,0.144672532
2.043010753,68.23521367,0.124633431
1.956989247,67.60024031,0.094819159
1.875855327,67.06295517,0.054740958
1.804496579,66.52567002,0.009775171
1.743890518,66.13491718,-0.025415445
1.694037146,66.62335823,-0.04056696
1.652981427,69.50516038,-0.045454545
1.619745846,76.19680266,-0.015151515
1.593352884,86.25868815,0.029814272
1.572825024,96.80901467,0.089931574
1.558162268,105.1613565,0.154936461
1.544477028,110.8272726,0.204789834
1.528836755,114.5394245,0.249755621
1.513196481,117.1770061,0.280058651
1.49657869,118.8865498,0.300097752
1.478005865,119.5703673,0.319648094
1.458455523,119.4238349,0.329912023
1.438905181,118.6911734,0.339687195
1.417399804,117.6166031,0.345063539
1.395894428,116.2489682,0.345063539
1.376344086,114.6371127,0.349951124
1.357771261,112.6833486,0.349951124
1.345063539,110.4853639,0.349951124
1.33431085,108.0920028,0.349951124
1.321603128,105.5032652,0.349951124
1.308895406,102.6214631,0.349951124
1.2971652,99.4954404,0.365102639
1.286412512,96.22288542,0.390029326
1.275659824,92.85264222,0.404692082
1.262952102,89.53124313,0.434995112
1.247311828,86.50290867,0.464809384
1.227761486,84.01185935,0.470185728
1.205278592,82.10693928,0.444770283
1.184750733,80.88583668,0.38514174
1.174975562,80.0066428,0.319648094
1.183773216,79.37166944,0.280058651
1.217008798,78.8832284,0.274682307
1.289345064,78.49247557,0.274682307
1.408602151,78.10172273,0.264907136
1.572825024,77.80865811,0.26001955
1.771260997,77.46674938,0.404692082
1.987292278,77.12484065,0.935483871
2.200391007,76.78293192,1.460899316
2.395894428,76.44102319,1.190615836
2.560117302,76.05027035,0.484848485
2.688172043,75.61067341,0.129521017
2.779081134,75.12223237,0.099706745
2.833822092,74.63379133,0.11485826
2.862170088,74.04766208,0.129521017
2.875855327,73.41268872,0.139784946
2.875855327,72.87540357,0.144672532
2.863147605,72.24043022,0.149560117
2.839687195,71.75198918,0.154936461
2.805474096,71.36123634,0.164711632
2.760508309,70.97048351,0.169599218
2.716520039,70.62857478,0.174975562
2.66568915,70.23782194,0.174975562
2.594330401,69.94475732,0.174975562
2.51026393,69.55400448,0.174975562
2.416422287,69.11440755,0.169599218
2.327468231,68.67481061,0.154936461
2.24340176,68.23521367,0.134897361
2.153470186,67.79561673,0.109481916
2.063538612,67.35601979,0.074780059
1.979472141,66.86757875,0.034701857
1.905180841,66.37913771,-0.01026393
1.841642229,66.13491718,-0.050342131
1.787878788,67.11179927,-0.075268817
1.743890518,70.97048351,-0.075268817
1.708699902,78.78554019,-0.050342131
1.678396872,89.38471082,-0.000488759
1.65200391,99.88619324,0.064516129
1.631476051,107.9943145,0.129521017
1.613880743,113.5136983,0.184750733
1.593352884,117.3235385,0.22971652
1.57086999,119.912276,0.26001955
1.546432063,121.6218196,0.280058651
1.521016618,122.3544812,0.300097752
1.494623656,122.3544812,0.309872923
1.468230694,121.8660402,0.319648094
1.440860215,120.9868463,0.325024438
1.412512219,119.8145878,0.325024438
1.38514174,118.3004205,0.325024438
1.359726295,116.4443446,0.325024438
1.336265885,114.295204,0.329912023
1.319648094,111.8529988,0.329912023
1.306940371,109.1177289,0.325024438
1.292277615,106.1870827,0.339687195
1.276637341,103.0122159,0.365102639
1.261974585,99.59312861,0.379765396
1.248289345,96.0763531,0.404692082
1.233626588,92.5595776,0.434995112
1.216031281,89.28702261,0.455034213
1.195503421,86.55175277,0.444770283
1.173020528,84.35376808,0.399804497
1.154447703,82.74191264,0.334799609
1.149560117,81.56965413,0.280058651
1.163245357,80.69046026,0.26001955
1.205278592,80.10433101,0.254643206
1.291300098,79.66473407,0.26001955
1.427174976,79.32282534,0.249755621
1.610948192,78.9320725,0.284946237
1.829912023,78.54131967,0.600195503
2.065493646,78.24825504,1.225317693
2.298142717,77.85750221,1.430596285
2.508308895,77.46674938,0.804985337
2.684261975,77.02715244,0.224828935
2.823069404,76.68524371,0.079667644
2.923753666,76.19680266,0.089931574
2.990224829,75.61067341,0.10459433
3.025415445,75.07338827,0.119745846
3.039100684,74.48725902,0.129521017
3.041055718,73.85228566,0.134897361
3.031280547,73.31500051,0.144672532
3.009775171,72.77771537,0.154936461
2.976539589,72.28927432,0.164711632
2.930596285,71.94736559,0.169599218
2.871945259,71.55661276,0.169599218
2.80058651,71.21470403,0.169599218
2.717497556,70.9216394,0.169599218
2.623655914,70.53088657,0.169599218
2.521994135,70.18897784,0.154936461
2.426197458,69.7493809,0.139784946
2.33431085,69.30978396,0.119745846
2.234604106,68.87018702,0.08455523
2.135874878,68.43059009,0.039589443
2.042033236,67.99099315,-0.005376344
1.956989247,67.5025521,-0.045454545
1.883675464,67.69792852,-0.075268817
1.819159335,69.65169269,-0.090420332
1.765395894,75.12223237,-0.085532747
1.721407625,84.06070345,-0.045454545
1.685239492,94.61102998,0.009775171
1.653958944,103.9402539,0.079667644
1.627565982,110.8272726,0.144672532
1.607038123,115.4674625,0.195014663
1.588465298,118.7888616,0.234604106
1.566959922,121.1333786,0.26001955
1.543499511,122.3544812,0.280058651
1.519061584,122.745234,0.284946237
1.492668622,122.4521694,0.294721408
1.46627566,121.6706637,0.300097752
1.439882698,120.6937817,0.304985337
1.413489736,119.2284585,0.304985337
1.388074291,117.4700708,0.304985337
1.363636364,115.3697743,0.304985337
1.340175953,112.9764132,0.300097752
1.321603128,110.3876757,0.300097752
1.307917889,107.5058735,0.304985337
1.292277615,104.3798508,0.334799609
1.275659824,101.0584517,0.35483871
1.259042033,97.59052034,0.37487781
1.242424242,94.07374483,0.410068426
1.2228739,90.60581343,0.434995112
1.202346041,87.52863486,0.430107527
1.179863148,85.03758554,0.390029326
1.157380254,83.18150958,0.319648094
1.142717498,81.86271876,0.26001955
1.146627566,80.88583668,0.234604106
1.181818182,80.25086332,0.22971652
1.240469208,79.81126638,0.22971652
1.332355816,79.46935765,0.219941349
1.477028348,79.17629303,0.244868035
1.666666667,78.9320725,0.515151515
1.885630499,78.59016377,1.130498534
2.114369501,78.24825504,1.390518084
2.333333333,77.80865811,0.840175953
2.52688172,77.36906117,0.23998045
2.686217009,76.88062012,0.069892473
2.80742913,76.34333498,0.079667644
2.893450635,75.75720573,0.099706745
2.950146628,75.17107648,0.109481916
2.979472141,74.53610312,0.11485826
2.989247312,73.99881797,0.119745846
2.987292278,73.51037693,0.124633431
2.974584555,72.97309178,0.129521017
2.94916911,72.63118305,0.129521017
2.911045943,72.24043022,0.129521017
2.860215054,71.94736559,0.129521017
2.796676442,71.60545686,0.124633431
2.720430108,71.31239224,0.11485826
2.633431085,70.9216394,0.109481916
2.537634409,70.53088657,0.099706745
2.434995112,70.09128963,0.074780059
2.340175953,69.60284859,0.049853372
2.249266862,69.11440755,0.019550342
2.151515152,68.6259665,-0.025415445
2.055718475,68.08868136,-0.070381232
1.965786901,67.60024031,-0.105571848
1.885630499,67.69792852,-0.145650049
1.815249267,69.30978396,-0.160312805
1.755620723,74.24303849,-0.15542522
1.705767351,82.79075674,-0.115347019
1.664711632,93.24339506,-0.070381232
1.631476051,102.8168395,-0.005376344
1.602150538,109.9480787,0.059628543
1.57771261,114.7348009,0.10459433
1.558162268,118.0562,0.129521017
1.54056696,120.2541847,0.154936461
1.519061584,121.3775991,0.174975562
1.49657869,121.6218196,0.184750733
1.47311828,121.1822227,0.189638319
1.447702835,120.3030288,0.189638319
1.420332356,119.0330821,0.199902248
1.391006843,117.567759,0.199902248
1.362658847,115.6628389,0.195014663
1.335288368,113.5136983,0.195014663
1.309872923,111.1203372,0.195014663
1.285434995,108.4827556,0.199902248
1.267839687,105.6009534,0.219941349
1.255131965,102.4749308,0.234604106
1.241446725,99.10468757,0.254643206
1.226783969,95.63675617,0.289833822
1.212121212,92.07113655,0.319648094
1.196480938,88.70089336,0.329912023
1.179863148,85.721403,0.300097752
1.159335288,83.37688599,0.23998045
1.136852395,81.61849824,0.174975562
1.11827957,80.34855153,0.139784946
1.115347019,79.46935765,0.134897361
1.140762463,78.8832284,0.134897361
1.207233627,78.44363146,0.129521017
1.2971652,78.05287863,0.124633431
1.418377322,77.80865811,0.26001955
1.589442815,77.56443758,0.780058651
1.795698925,77.32021706,1.215542522
2.015640274,77.02715244,0.845063539
2.228739003,76.73408781,0.179863148
2.418377322,76.34333498,-0.045454545
2.573802542,76.00142625,-0.020527859
2.694037146,75.4641411,0.004398827
2.778103617,74.97570006,0.019550342
2.831867058,74.43841491,0.029814272
2.861192571,73.85228566,0.039589443
2.869990225,73.36384462,0.044477028
2.864125122,72.87540357,0.044477028
2.848484848,72.43580664,0.054740958
2.823069404,72.0450538,0.054740958
2.785923754,71.65430097,0.054740958
2.736070381,71.36123634,0.059628543
2.673509286,71.06817172,0.059628543
2.598240469,70.72626299,0.054740958
2.511241447,70.38435426,0.044477028
2.41544477,69.94475732,0.039589443
2.311827957,69.35862807,0.019550342
2.206256109,68.87018702,-0.005376344
2.100684262,68.28405777,-0.045454545
2.009775171,67.79561673,-0.085532747
1.929618768,67.35601979,-0.125610948
1.849462366,67.06295517,-0.15542522
1.775171065,67.55139621,-0.175464321
1.709677419,70.18897784,-0.180351906
1.652981427,76.53871139,-0.145650049
1.604105572,86.35637635,-0.095307918
1.563049853,97.00439108,-0.035190616
1.528836755,105.7474857,0.024437928
1.499511241,111.6576224,0.079667644
1.474095797,115.6139948,0.124633431
1.449657869,118.2515764,0.149560117
1.42913001,119.7657437,0.179863148
1.410557185,120.1564965,0.195014663
1.388074291,119.7657437,0.209677419
1.362658847,118.8865498,0.214565005
1.336265885,117.6166031,0.219941349
1.308895406,116.2001241,0.22971652
1.282502444,114.4417363,0.234604106
1.257086999,112.439128,0.234604106
1.233626588,110.094611,0.23998045
1.212121212,107.5547176,0.244868035
1.19257087,104.8194478,0.26001955
1.177908113,101.7911133,0.284946237
1.166177908,98.56740242,0.304985337
1.159335288,95.09947102,0.345063539
1.154447703,91.63153962,0.379765396
1.144672532,88.31014052,0.390029326
1.129032258,85.37949427,0.369990225
1.107526882,83.03497726,0.314760508
1.083088954,81.56965413,0.26001955
1.057673509,80.54392795,0.224828935
1.041055718,79.90895459,0.219941349
1.045943304,79.56704586,0.219941349
1.086021505,79.22513713,0.224828935
1.169110459,78.98091661,0.219941349
1.302052786,78.73669609,0.319648094
1.449657869,78.49247557,0.790322581
1.61485826,78.24825504,1.320625611
1.820136852,77.90634631,1.325513196
2.038123167,77.61328169,0.419843597
2.245356794,77.22252885,0.08455523
2.425219941,76.78293192,0.059628543
2.567937439,76.29449087,0.099706745
2.672531769,75.80604983,0.119745846
2.741935484,75.31760879,0.129521017
2.782991202,74.78032364,0.139784946
2.80058651,74.3407267,0.149560117
2.80058651,73.90112976,0.159824047
2.785923754,73.60806514,0.164711632
2.761485826,73.31500051,0.169599218
2.727272727,73.07077999,0.174975562
2.68230694,72.77771537,0.179863148
2.625610948,72.48465074,0.184750733
2.557184751,72.0450538,0.184750733
2.478005865,71.50776865,0.184750733
2.390029326,70.8727953,0.174975562
2.294232649,70.23782194,0.159824047
2.194525904,69.60284859,0.139784946
2.095796676,68.96787523,0.10459433
2.001955034,68.43059009,0.064516129
1.915933529,67.84446083,0.019550342
1.847507331,67.5025521,-0.015151515
1.792766373,67.99099315,-0.035190616
1.732160313,70.97048351,-0.04056696
1.671554252,77.90634631,-0.015151515
1.626588465,88.16360821,0.029814272
1.591397849,98.90931115,0.094819159
1.56402737,107.3593412,0.154936461
1.541544477,113.1229455,0.204789834
1.521994135,116.9816297,0.244868035
1.504398827,119.6680555,0.280058651
1.486803519,121.3775991,0.304985337
1.469208211,122.0614166,0.325024438
1.450635386,121.8660402,0.334799609
1.434017595,121.1822227,0.339687195
1.419354839,120.1564965,0.345063539
1.401759531,118.9353939,0.349951124
1.383186706,117.4212267,0.349951124
1.364613881,115.5651507,0.349951124
1.345063539,113.367166,0.349951124
1.326490714,110.9738049,0.345063539
1.307917889,108.4339115,0.35483871
1.291300098,105.5521093,0.379765396
1.277614858,102.4749308,0.394916911
1.263929619,99.25121988,0.410068426
1.250244379,95.78328848,0.444770283
1.240469208,92.36420118,0.470185728
1.230694037,89.1893344,0.475073314
1.214076246,86.50290867,0.439882698
1.191593353,84.50030039,0.379765396
1.169110459,83.13266547,0.309872923
1.154447703,82.10693928,0.280058651
1.158357771,81.37427772,0.274682307
1.194525904,80.78814847,0.274682307
1.27370479,80.29970742,0.264907136
1.400782014,79.86011049,0.26001955
1.572825024,79.46935765,0.444770283
1.780058651,79.17629303,1.005376344
2.004887586,78.8832284,1.480938416
2.19941349,78.49247557,1.145650049
2.366568915,78.10172273,0.444770283
2.529814272,77.759814,0.129521017
2.668621701,77.32021706,0.099706745
2.776148583,76.73408781,0.119745846
2.852394917,76.19680266,0.129521017
2.902248289,75.56182931,0.144672532
2.928641251,74.97570006,0.154936461
2.936461388,74.43841491,0.164711632
2.928641251,73.85228566,0.169599218
2.908113392,73.41268872,0.174975562
2.87487781,72.97309178,0.184750733
2.833822092,72.53349484,0.184750733
2.784946237,72.24043022,0.189638319
2.724340176,71.84967738,0.189638319
2.65200391,71.50776865,0.189638319
2.568914956,71.06817172,0.184750733
2.477028348,70.53088657,0.164711632
2.379276637,70.09128963,0.144672532
2.279569892,69.65169269,0.119745846
2.181818182,69.26093986,0.079667644
2.088954057,68.82134292,0.039589443
2.004887586,68.38174598,-0.005376344
1.929618768,68.28405777,-0.045454545
1.864125122,69.7493809,-0.065493646
1.813294233,74.43841491,-0.065493646
1.773216031,83.03497726,-0.03030303
1.734115347,93.92721252,0.024437928
1.698924731,104.1844744,0.089931574
1.668621701,111.8041547,0.154936461
1.641251222,116.9816297,0.204789834
1.615835777,120.5960934,0.244868035
1.591397849,123.1359869,0.274682307
1.565004888,124.60131,0.294721408
1.539589443,125.1874393,0.309872923
1.513196481,124.9920628,0.319648094
1.485826002,124.4059336,0.319648094
1.463343109,123.5755838,0.325024438
1.443792766,122.3056371,0.325024438
1.419354839,120.7426258,0.319648094
1.393939394,118.7888616,0.319648094
1.369501466,116.639721,0.319648094
1.345063539,114.2463599,0.325024438
1.321603128,111.5110901,0.334799609
1.300097752,108.4827556,0.359726295
1.28054741,105.2590447,0.37487781
1.264907136,101.7422692,0.399804497
1.249266862,98.12780548,0.430107527
1.232649071,94.51334177,0.450146628
1.219941349,91.09425447,0.434995112
1.206256109,88.31014052,0.394916911
1.187683284,86.06331173,0.325024438
1.169110459,84.35376808,0.269794721
1.159335288,83.18150958,0.249755621
1.171065494,82.3023157,0.249755621
1.218963832,81.71618645,0.249755621
1.312805474,81.37427772,0.23998045
1.456500489,81.03236899,0.284946237
1.643206256,80.73930436,0.62512219
1.861192571,80.44623974,1.260508309
2.089931574,80.10433101,1.450635386
2.31085044,79.66473407,0.790322581
2.485826002,79.22513713,0.219941349
2.62170088,78.78554019,0.079667644
2.742913001,78.29709915,0.089931574
2.839687195,77.759814,0.10459433
2.910068426,77.17368475,0.119745846
2.955034213,76.53871139,0.129521017
2.980449658,75.90373804,0.134897361
2.990224829,75.36645289,0.139784946
2.985337243,74.87801185,0.144672532
2.966764418,74.43841491,0.149560117
2.936461388,73.99881797,0.154936461
2.893450635,73.60806514,0.159824047
2.842619746,73.31500051,0.164711632
2.782991202,72.92424768,0.164711632
2.708699902,72.53349484,0.154936461
2.62170088,72.09389791,0.144672532
2.524926686,71.65430097,0.129521017
2.421309873,71.16585992,0.10459433
2.314760508,70.67741888,0.074780059
2.209188661,70.09128963,0.029814272
2.108504399,69.55400448,-0.015151515
2.016617791,69.11440755,-0.055229717
1.933528837,69.50516038,-0.085532747
1.860215054,72.0450538,-0.095307918
1.796676442,78.24825504,-0.080645161
1.747800587,87.82169948,-0.04056696
1.709677419,98.46971421,0.024437928
1.674486804,107.5547176,0.094819159
1.642228739,114.0509835,0.149560117
1.612903226,118.5446411,0.195014663
1.58455523,121.7195078,0.22971652
1.557184751,123.8198043,0.254643206
1.530791789,124.9432187,0.269794721
1.502443793,125.1874393,0.280058651
1.474095797,124.7966864,0.284946237
1.446725318,124.112869,0.294721408
1.419354839,123.1359869,0.300097752
1.397849462,121.8171961,0.294721408
1.380254154,120.0588083,0.294721408
1.358748778,117.9096677,0.294721408
1.336265885,115.4186184,0.289833822
1.312805474,112.7321927,0.294721408
1.291300098,109.8015464,0.319648094
1.272727273,106.5289914,0.339687195
1.254154448,103.1099041,0.359726295
1.23655914,99.54428451,0.390029326
1.218963832,95.88097669,0.419843597
1.198435973,92.31535707,0.424731183
1.175953079,89.23817851,0.394916911
1.150537634,86.74712919,0.329912023
1.130987292,84.79336502,0.26001955
1.11827957,83.4745742,0.224828935
1.115347019,82.54653622,0.219941349
1.136852395,82.00925107,0.219941349
1.196480938,81.56965413,0.209677419
1.302052786,81.2277454,0.214565005
1.456500489,80.88583668,0.390029326
1.649071359,80.54392795,0.950146628
1.866080156,80.25086332,1.395894428
2.08797654,79.86011049,1.020527859
2.296187683,79.42051355,0.329912023
2.476050831,78.98091661,0.054740958
2.608993157,78.49247557,0.034701857
2.7028348,77.90634631,0.044477028
2.781036168,77.32021706,0.044477028
2.836754643,76.68524371,0.049853372
2.871945259,76.00142625,0.054740958
2.890518084,75.36645289,0.059628543
2.894428152,74.78032364,0.064516129
2.884652981,74.2918826,0.069892473
2.862170088,73.85228566,0.074780059
2.826001955,73.51037693,0.064516129
2.7771261,73.07077999,0.064516129
2.714565005,72.72887126,0.064516129
2.638318671,72.38696253,0.059628543
2.561094819,71.9962097,0.054740958
2.481915934,71.55661276,0.039589443
2.390029326,70.97048351,0.019550342
2.289345064,70.43319836,-0.005376344
2.18572825,69.7493809,-0.045454545
2.085043988,69.11440755,-0.085532747
1.989247312,68.47943419,-0.130498534
1.901270772,68.08868136,-0.16568915
1.824046921,68.96787523,-0.175464321
1.757575758,72.77771537,-0.170576735
1.700879765,80.49508384,-0.140273705
1.653958944,90.94772216,-0.085532747
1.619745846,101.3026723,-0.020527859
1.593352884,109.3131054,0.039589443
1.565982405,114.6371127,0.08455523
1.539589443,118.2027323,0.124633431
1.514173998,120.5472493,0.159824047
1.488758553,122.0614166,0.174975562
1.462365591,122.5498576,0.179863148
1.43597263,122.4521694,0.184750733
1.408602151,121.8171961,0.189638319
1.380254154,120.8891581,0.189638319
1.351906158,119.6680555,0.195014663
1.323558162,118.1050441,0.195014663
1.296187683,116.2489682,0.199902248
1.275659824,114.0509835,0.199902248
1.26001955,111.5599342,0.214565005
1.241446725,108.7269761,0.23998045
1.2228739,105.5521093,0.254643206
1.203323558,102.0353338,0.274682307
1.183773216,98.46971421,0.314760508
1.165200391,94.9040946,0.334799609
1.145650049,91.63153962,0.325024438
1.124144673,88.74973746,0.280058651
1.100684262,86.35637635,0.204789834
1.073313783,84.5491445,0.159824047
1.046920821,83.37688599,0.144672532
1.031280547,82.69306853,0.139784946
1.035190616,82.25347159,0.134897361
1.064516129,81.71618645,0.124633431
1.134897361,81.03236899,0.159824047
1.252199413,80.25086332,0.464809384
1.41544477,79.56704586,1.055229717
1.61485826,79.02976071,1.210654936
1.833822092,78.68785198,0.504887586
2.052785924,78.34594325,0.024437928
2.253176931,77.90634631,-0.035190616
2.423264907,77.46674938,0.004398827
2.557184751,76.92946423,0.019550342
2.654936461,76.24564677,0.039589443
2.713587488,75.56182931,0.054740958
2.745845552,74.87801185,0.054740958
2.766373412,74.24303849,0.059628543
2.772238514,73.80344156,0.064516129
2.765395894,73.41268872,0.074780059
2.746823069,73.1196241,0.074780059
2.716520039,72.72887126,0.079667644
2.673509286,72.43580664,0.079667644
2.617790811,72.19158611,0.08455523
2.549364614,71.9962097,0.08455523
2.469208211,71.84967738,0.079667644
2.37829912,71.75198918,0.074780059
2.291300098,71.50776865,0.054740958
2.204301075,71.11701582,0.029814272
2.105571848,70.48204247,-0.015151515
2.003910068,69.79822501,-0.050342131
1.903225806,69.06556344,-0.080645161
1.809384164,68.82134292,-0.100195503
1.727272727,70.04244553,-0.110459433
1.655913978,74.48725902,-0.095307918
1.596285435,82.83960085,-0.050342131
1.54740958,93.63414789,0.009775171
1.506353861,103.6960334,0.074780059
1.472140762,111.0714931,0.134897361
1.443792766,115.9070594,0.179863148
1.42228739,119.1796144,0.204789834
1.404692082,121.2310668,0.234604106
1.384164223,122.256793,0.254643206
1.361681329,122.256793,0.274682307
1.338220919,121.4752873,0.284946237
1.314760508,120.3030288,0.289833822
1.290322581,118.8865498,0.294721408
1.265884653,117.2258503,0.294721408
1.238514174,115.223242,0.294721408
1.211143695,112.9764132,0.300097752
1.186705767,110.534208,0.300097752
1.165200391,107.7989381,0.309872923
1.150537634,104.7217596,0.334799609
1.140762463,101.4492046,0.349951124
1.129032258,97.93242907,0.369990225
1.117302053,94.36680945,0.414956012
1.10459433,90.85003395,0.439882698
1.090909091,87.87054359,0.430107527
1.0742913,85.42833837,0.379765396
1.053763441,83.71879472,0.314760508
1.031280547,82.69306853,0.264907136
1.010752688,82.05809518,0.249755621
1.002932551,81.61849824,0.249755621
1.020527859,81.2277454,0.254643206
1.077223851,80.93468078,0.23998045
1.158357771,80.54392795,0.284946237
1.270772239,80.15317511,0.630009775
1.434995112,79.81126638,1.255620723
1.634408602,79.42051355,1.420821114
1.8514174,78.98091661,0.710166178
2.065493646,78.54131967,0.195014663
2.258064516,78.05287863,0.099706745
2.418377322,77.46674938,0.119745846
2.542521994,76.92946423,0.134897361
2.629521017,76.24564677,0.149560117
2.685239492,75.65951752,0.159824047
2.714565005,75.12223237,0.164711632
2.722385142,74.63379133,0.174975562
2.715542522,74.09650618,0.184750733
2.697947214,73.75459745,0.184750733
2.669599218,73.41268872,0.189638319
2.630498534,73.1196241,0.189638319
2.579667644,72.77771537,0.195014663
2.517106549,72.43580664,0.189638319
2.442815249,72.0450538,0.189638319
2.358748778,71.55661276,0.184750733
2.26686217,71.06817172,0.169599218
2.170087977,70.53088657,0.149560117
2.073313783,70.04244553,0.11485826
1.980449658,69.60284859,0.074780059
1.902248289,69.11440755,0.029814272
1.835777126,68.72365471,-0.01026393
1.771260997,69.06556344,-0.035190616
1.714565005,71.21470403,-0.045454545
1.66568915,76.97830833,-0.03030303
1.625610948,86.50290867,0.009775171
1.593352884,97.44398802,0.069892473
1.565982405,106.822056,0.124633431
1.541544477,113.4160101,0.184750733
1.520039101,117.8608236,0.22971652
1.499511241,120.9380022,0.26001955
1.478005865,122.9894546,0.289833822
1.45943304,124.0151807,0.309872923
1.442815249,124.112869,0.319648094
1.421309873,123.6244279,0.325024438
1.396871945,122.6963899,0.329912023
1.374389052,121.4752873,0.329912023
1.351906158,120.0588083,0.329912023
1.329423265,118.3492647,0.329912023
1.308895406,116.2001241,0.329912023
1.289345064,113.7579189,0.325024438
1.270772239,111.0714931,0.329912023
1.253176931,108.2385351,0.349951124
1.23655914,105.0636683,0.369990225
1.225806452,101.5957369,0.390029326
1.218963832,97.93242907,0.419843597
1.210166178,94.31796535,0.450146628
1.198435973,90.85003395,0.455034213
1.183773216,87.82169948,0.424731183
1.164222874,85.28180606,0.359726295
1.140762463,83.66995062,0.289833822
1.122189638,82.59538032,0.254643206
1.119257087,81.86271876,0.249755621
1.144672532,81.27658951,0.249755621
1.210166178,80.78814847,0.244868035
1.323558162,80.49508384,0.23998045
1.484848485,80.29970742,0.424731183
1.653958944,80.0554869,0.980449658
1.830889541,79.76242228,1.455522972
2.039100684,79.42051355,1.110459433
2.249266862,78.98091661,0.410068426
2.440860215,78.54131967,0.10459433
2.600195503,78.10172273,0.079667644
2.722385142,77.56443758,0.10459433
2.810361681,76.97830833,0.119745846
2.867057674,76.34333498,0.129521017
2.900293255,75.80604983,0.134897361
2.915933529,75.21992058,0.149560117
2.914956012,74.68263543,0.154936461
2.901270772,74.19419439,0.159824047
2.876832845,73.75459745,0.164711632
2.841642229,73.41268872,0.174975562
2.795698925,73.07077999,0.174975562
2.738025415,72.68002716,0.174975562
2.667644184,72.28927432,0.169599218
2.58455523,71.94736559,0.164711632
2.490713587,71.55661276,0.149560117
2.389051808,71.11701582,0.129521017
2.283479961,70.67741888,0.10459433
2.177908113,70.18897784,0.064516129
2.076246334,69.79822501,0.019550342
1.980449658,69.35862807,-0.025415445
1.904203324,69.35862807,-0.060606061
1.841642229,70.82395119,-0.075268817
1.782013685,75.415297,-0.070381232
1.729227761,83.86532704,-0.04056696
1.683284457,94.65987408,0.019550342
1.64516129,104.917136,0.089931574
1.612903226,112.6833486,0.154936461
1.583577713,117.9096677,0.204789834
1.556207234,121.6218196,0.244868035
1.530791789,124.2594013,0.274682307
1.505376344,125.8224126,0.289833822
1.480938416,126.4085419,0.304985337
1.460410557,126.3596978,0.309872923
1.441837732,125.8224126,0.319648094
1.419354839,124.8455305,0.319648094
1.394916911,123.6244279,0.319648094
1.368523949,122.0125725,0.314760508
1.34115347,119.912276,0.314760508
1.315738025,117.6166031,0.314760508
1.292277615,114.9301774,0.314760508
1.270772239,112.0483752,0.329912023
1.250244379,108.9223525,0.359726295
1.231671554,105.5521093,0.37487781
1.215053763,101.9864897,0.399804497
1.19941349,98.3231819,0.434995112
1.188660802,94.65987408,0.450146628
1.176930596,91.38731909,0.434995112
1.159335288,88.55436105,0.390029326
1.138807429,86.40522046,0.319648094
1.11827957,84.93989733,0.269794721
1.107526882,83.86532704,0.254643206
1.119257087,83.13266547,0.254643206
1.166177908,82.59538032,0.249755621
1.258064516,82.25347159,0.23998045
1.398826979,81.91156286,0.300097752
1.58455523,81.61849824,0.674975562
1.799608993,81.27658951,1.285434995
1.997067449,80.93468078,1.420821114
2.177908113,80.49508384,0.660312805
2.366568915,80.0554869,0.174975562
2.536656891,79.61588996,0.08455523
2.676441838,79.12744892,0.094819159
2.782991202,78.49247557,0.109481916
2.857282502,77.85750221,0.119745846
2.905180841,77.22252885,0.129521017
2.93255132,76.6363996,0.134897361
2.943304008,76.00142625,0.144672532
2.939393939,75.4641411,0.149560117
2.921798631,74.97570006,0.154936461
2.891495601,74.63379133,0.159824047
2.8514174,74.24303849,0.164711632
2.802541544,73.85228566,0.164711632
2.739002933,73.51037693,0.164711632
2.661779081,73.1684682,0.154936461
2.571847507,72.72887126,0.144672532
2.472140762,72.24043022,0.129521017
2.365591398,71.80083328,0.099706745
2.256109482,71.31239224,0.069892473
2.1485826,70.72626299,0.019550342
2.045943304,70.23782194,-0.025415445
1.953079179,69.84706911,-0.060606061
1.869990225,70.28666605,-0.085532747
1.805474096,73.1684682,-0.085532747
1.754643206,79.66473407,-0.070381232
1.706744868,89.53124313,-0.025415445
1.663734115,100.4234784,0.034701857
1.626588465,109.5573259,0.099706745
1.595307918,115.9070594,0.154936461
1.566959922,120.2541847,0.199902248
1.54056696,123.184831,0.234604106
1.515151515,125.0409069,0.26001955
1.48973607,125.9689449,0.274682307
1.464320626,126.1154772,0.284946237
1.436950147,125.6270362,0.289833822
1.407624633,124.7478423,0.294721408
1.383186706,123.5755838,0.300097752
1.362658847,122.0125725,0.294721408
1.337243402,120.0588083,0.294721408
1.311827957,117.8119795,0.294721408
1.288367546,115.3209302,0.294721408
1.264907136,112.4879721,0.300097752
1.24340176,109.4107936,0.314760508
1.224828935,106.0405504,0.329912023
1.208211144,102.572619,0.345063539
1.19257087,98.90931115,0.37487781
1.176930596,95.29484744,0.404692082
1.160312805,91.92460424,0.410068426
1.145650049,89.04280209,0.38514174
1.130987292,86.79597329,0.314760508
1.109481916,85.13527375,0.23998045
1.089931574,83.91417114,0.184750733
1.083088954,83.03497726,0.169599218
1.10459433,82.49769212,0.169599218
1.165200391,82.10693928,0.174975562
1.272727273,81.71618645,0.164711632
1.428152493,81.42312182,0.304985337
1.623655914,81.03236899,0.810361681
1.842619746,80.59277205,1.270772239
2.065493646,80.15317511,0.950146628
2.27370479,79.66473407,0.274682307
2.43597263,79.17629303,-0.005376344
2.559139785,78.59016377,-0.020527859
2.66568915,78.05287863,0.004398827
2.746823069,77.41790527,0.019550342
2.803519062,76.73408781,0.024437928
2.83773216,76.05027035,0.034701857
2.853372434,75.31760879,0.039589443
2.853372434,74.53610312,0.044477028
2.838709677,73.90112976,0.054740958
2.811339198,73.31500051,0.059628543
2.772238514,72.72887126,0.059628543
2.720430108,72.24043022,0.059628543
2.663734115,71.80083328,0.064516129
2.600195503,71.36123634,0.059628543
2.521016618,70.9216394,0.054740958
2.42913001,70.43319836,0.044477028
2.329423265,69.94475732,0.029814272
2.225806452,69.30978396,0.009775171
2.122189638,68.72365471,-0.03030303
2.021505376,68.08868136,-0.075268817
1.927663734,67.60024031,-0.115347019
1.843597263,67.30717569,-0.15542522
1.77028348,67.99099315,-0.175464321
1.707722385,71.31239224,-0.180351906
1.654936461,78.54131967,-0.145650049
1.61485826,88.99395798,-0.085532747
1.582600196,99.93503734,-0.025415445
1.552297165,108.8246643,0.029814272
1.524926686,114.9301774,0.08455523
1.498533724,119.1307703,0.119745846
1.472140762,121.9148843,0.144672532
1.445747801,123.673272,0.164711632
1.418377322,124.3570895,0.179863148
1.390029326,124.2594013,0.195014663
1.359726295,123.5755838,0.199902248
1.327468231,122.5987017,0.199902248
1.296187683,121.3775991,0.199902248
1.270772239,119.8145878,0.199902248
1.248289345,117.8608236,0.195014663
1.2228739,115.6628389,0.195014663
1.195503421,113.2206337,0.209677419
1.168132942,110.4853639,0.234604106
1.143695015,107.3593412,0.249755621
1.120234604,103.989098,0.269794721
1.097751711,100.3746343,0.300097752
1.076246334,96.56479415,0.325024438
1.054740958,92.85264222,0.314760508
1.032258065,89.48239903,0.269794721
1.005865103,86.74712919,0.209677419
0.977517107,84.69567681,0.159824047
0.956989247,83.18150958,0.134897361
0.945259042,82.10693928,0.129521017
0.96285435,81.42312182,0.134897361
1.015640274,80.93468078,0.124633431
1.095796676,80.59277205,0.119745846
1.217986315,80.29970742,0.369990225
1.384164223,80.0554869,0.945259042
1.588465298,79.86011049,1.160312805
1.81427175,79.56704586,0.605083089
2.043010753,79.22513713,0.064516129
2.254154448,78.9320725,-0.04056696
2.434017595,78.49247557,-0.005376344
2.56402737,78.05287863,0.009775171
2.652981427,77.46674938,0.029814272
2.723362659,76.92946423,0.049853372
2.77028348,76.34333498,0.059628543
2.794721408,75.80604983,0.064516129
2.802541544,75.21992058,0.069892473
2.795698925,74.73147954,0.08455523
2.7771261,74.24303849,0.099706745
2.747800587,73.85228566,0.10459433
2.707722385,73.51037693,0.10459433
2.654936461,73.1196241,0.109481916
2.589442815,72.72887126,0.119745846
2.512218964,72.28927432,0.119745846
2.434995112,71.80083328,0.10459433
2.35483871,71.31239224,0.089931574
2.26001955,70.82395119,0.069892473
2.158357771,70.28666605,0.029814272
2.055718475,69.79822501,-0.01026393
1.956989247,69.30978396,-0.045454545
1.865102639,69.16325165,-0.075268817
1.782991202,70.28666605,-0.080645161
1.712609971,74.3407267,-0.075268817
1.653958944,82.3511598,-0.04056696
1.605083089,93.04801864,0.024437928
1.565004888,103.500657,0.094819159
1.536656891,111.4134018,0.149560117
1.515151515,116.6885651,0.195014663
1.493646139,120.1076524,0.22971652
1.472140762,122.3056371,0.254643206
1.450635386,123.2825192,0.269794721
1.42913001,123.4290515,0.284946237
1.406647116,122.7940781,0.294721408
1.383186706,121.8171961,0.300097752
1.359726295,120.4984052,0.300097752
1.335288368,118.8865498,0.300097752
1.31085044,116.9327856,0.300097752
1.287390029,114.7348009,0.300097752
1.269794721,112.2437516,0.300097752
1.255131965,109.5573259,0.304985337
1.237536657,106.5289914,0.325024438
1.219941349,103.3052805,0.345063539
1.202346041,99.88619324,0.359726295
1.186705767,96.22288542,0.399804497
1.171065494,92.75495401,0.434995112
1.15542522,89.53124313,0.444770283
1.137829912,86.9425056,0.414956012
1.116324536,84.98874143,0.35483871
1.092864125,83.62110651,0.294721408
1.072336266,82.59538032,0.254643206
1.062561095,81.86271876,0.254643206
1.070381232,81.27658951,0.254643206
1.10459433,80.88583668,0.254643206
1.17888563,80.44623974,0.254643206
1.300097752,80.0554869,0.369990225
1.467253177,79.66473407,0.865102639
1.668621701,79.37166944,1.395894428
1.88856305,79.02976071,1.160312805
2.107526882,78.59016377,0.459921799
2.307917889,78.19941094,0.119745846
2.476050831,77.66212579,0.099706745
2.607038123,77.17368475,0.134897361
2.701857283,76.53871139,0.149560117
2.758553275,75.90373804,0.159824047
2.786901271,75.36645289,0.169599218
2.802541544,74.78032364,0.179863148
2.804496579,74.24303849,0.184750733
2.792766373,73.80344156,0.189638319
2.769305963,73.36384462,0.195014663
2.734115347,73.07077999,0.199902248
2.687194526,72.72887126,0.204789834
2.627565982,72.43580664,0.209677419
2.556207234,72.0450538,0.209677419
2.474095797,71.65430097,0.204789834
2.384164223,71.16585992,0.195014663
2.287390029,70.67741888,0.174975562
2.200391007,70.18897784,0.149560117
2.119257087,69.65169269,0.119745846
2.032258065,69.30978396,0.079667644
1.948191593,68.87018702,0.034701857
1.870967742,68.6259665,-0.005376344
1.804496579,69.40747217,-0.025415445
1.747800587,72.92424768,-0.025415445
1.699902248,80.44623974,-0.000488759
1.660801564,91.19194268,0.044477028
1.6285435,102.133022,0.10459433
1.601173021,110.6807403,0.159824047
1.576735093,116.4443446,0.209677419
1.557184751,120.2541847,0.254643206
1.53372434,122.9406105,0.280058651
1.509286413,124.5036218,0.300097752
1.490713587,125.1385951,0.319648094
1.468230694,124.9432187,0.329912023
1.443792766,124.2594013,0.334799609
1.419354839,123.2825192,0.339687195
1.394916911,122.0614166,0.339687195
1.370478983,120.4984052,0.339687195
1.34799609,118.495797,0.339687195
1.325513196,116.2001241,0.339687195
1.304985337,113.6113865,0.339687195
1.287390029,110.8272726,0.345063539
1.275659824,107.750094,0.365102639
1.268817204,104.4286949,0.38514174
1.26001955,100.9119194,0.399804497
1.250244379,97.29745571,0.430107527
1.238514174,93.68299199,0.455034213
1.224828935,90.41043701,0.459921799
1.208211144,87.67516717,0.424731183
1.186705767,85.62371479,0.359726295
1.165200391,84.15839166,0.294721408
1.149560117,83.18150958,0.264907136
1.153470186,82.49769212,0.26001955
1.190615836,81.91156286,0.26001955
1.253176931,81.42312182,0.254643206
1.349951124,81.03236899,0.249755621
1.500488759,80.69046026,0.455034213
1.694037146,80.34855153,1.03030303
1.913000978,80.0554869,1.465786901
2.139784946,79.66473407,1.070381232
2.353861193,79.22513713,0.38514174
2.539589443,78.8832284,0.10459433
2.68914956,78.44363146,0.08455523
2.801564027,77.90634631,0.10459433
2.879765396,77.36906117,0.119745846
2.930596285,76.73408781,0.129521017
2.956989247,76.09911446,0.139784946
2.96285435,75.4641411,0.149560117
2.953079179,74.92685595,0.154936461
2.934506354,74.43841491,0.164711632
2.905180841,73.99881797,0.169599218
2.864125122,73.60806514,0.169599218
2.810361681,73.2173123,0.174975562
2.744868035,72.87540357,0.169599218
2.668621701,72.43580664,0.169599218
2.581622678,72.0450538,0.159824047
2.485826002,71.55661276,0.149560117
2.384164223,71.11701582,0.129521017
2.279569892,70.62857478,0.099706745
2.186705767,70.09128963,0.059628543
2.102639296,69.65169269,0.019550342
2.016617791,69.26093986,-0.025415445
1.936461388,69.16325165,-0.060606061
1.866080156,70.72626299,-0.075268817
1.806451613,75.61067341,-0.070381232
1.75659824,84.50030039,-0.035190616
1.713587488,95.68560027,0.029814272
1.677419355,106.0405504,0.094819159
1.646138807,113.8556071,0.159824047
1.617790811,119.1796144,0.209677419
1.591397849,122.8429222,0.244868035
1.565982405,125.4316598,0.274682307
1.544477028,126.945827,0.294721408
1.524926686,127.434268,0.304985337
1.502443793,127.1900475,0.314760508
1.477028348,126.5550742,0.319648094
1.449657869,125.6270362,0.319648094
1.421309873,124.3570895,0.325024438
1.393939394,122.6963899,0.319648094
1.367546432,120.6937817,0.319648094
1.344086022,118.3004205,0.319648094
1.321603128,115.6628389,0.319648094
1.300097752,112.7810368,0.334799609
1.279569892,109.5573259,0.359726295
1.265884653,106.1382386,0.379765396
1.256109482,102.4749308,0.404692082
1.244379277,98.76277884,0.434995112
1.22971652,95.05062691,0.455034213
1.211143695,91.68038372,0.444770283
1.188660802,88.79858157,0.404692082
1.164222874,86.60059687,0.334799609
1.14173998,84.98874143,0.274682307
1.130009775,83.86532704,0.254643206
1.14173998,83.13266547,0.249755621
1.189638319,82.54653622,0.254643206
1.283479961,82.15578339,0.244868035
1.427174976,81.86271876,0.269794721
1.58455523,81.56965413,0.555229717
1.757575758,81.1789013,1.175464321
1.968719453,80.88583668,1.41544477
2.190615836,80.49508384,0.850439883
2.399804497,80.0554869,0.254643206
2.579667644,79.61588996,0.08455523
2.725317693,79.12744892,0.094819159
2.833822092,78.54131967,0.109481916
2.910068426,77.90634631,0.119745846
2.957966764,77.32021706,0.129521017
2.983382209,76.6363996,0.139784946
2.992179863,76.00142625,0.149560117
2.985337243,75.415297,0.154936461
2.965786901,74.92685595,0.159824047
2.935483871,74.48725902,0.164711632
2.894428152,74.19419439,0.164711632
2.841642229,73.80344156,0.164711632
2.778103617,73.41268872,0.164711632
2.700879765,73.07077999,0.154936461
2.612903226,72.68002716,0.149560117
2.515151515,72.28927432,0.134897361
2.411534702,71.80083328,0.109481916
2.30400782,71.21470403,0.079667644
2.196480938,70.72626299,0.034701857
2.093841642,70.18897784,-0.015151515
2.008797654,69.7493809,-0.055229717
1.936461388,69.99360142,-0.090420332
1.866080156,72.19158611,-0.105571848
1.803519062,77.85750221,-0.100195503
1.748778104,87.23557023,-0.060606061
1.701857283,98.17664959,0.004398827
1.662756598,107.8477822,0.064516129
1.6285435,114.9301774,0.119745846
1.600195503,119.7657437,0.164711632
1.575757576,123.1359869,0.195014663
1.551319648,125.2851275,0.214565005
1.52688172,126.4085419,0.219941349
1.506353861,126.6039183,0.22971652
1.487781036,126.1154772,0.234604106
1.463343109,125.2362834,0.23998045
1.436950147,124.0640249,0.22971652
1.402737048,122.5010135,0.22971652
1.3714565,120.5960934,0.224828935
1.348973607,118.3492647,0.214565005
1.325513196,115.8582153,0.209677419
1.303030303,113.1229455,0.209677419
1.282502444,109.9969228,0.22971652
1.262952102,106.6755237,0.249755621
1.246334311,103.1587482,0.26001955
1.230694037,99.4954404,0.284946237
1.219941349,95.73444437,0.319648094
1.211143695,92.07113655,0.334799609
1.197458456,88.79858157,0.319648094
1.177908113,86.16099994,0.264907136
1.15542522,84.15839166,0.199902248
1.134897361,82.74191264,0.154936461
1.124144673,81.71618645,0.134897361
1.136852395,81.03236899,0.139784946
1.186705767,80.49508384,0.144672532
1.282502444,80.0554869,0.129521017
1.427174976,79.66473407,0.199902248
1.61485826,79.22513713,0.605083089
1.80058651,78.78554019,1.170576735
1.983382209,78.34594325,1.245356794
2.186705767,77.85750221,0.394916911
2.382209189,77.32021706,-0.000488759
2.551319648,76.78293192,-0.035190616
2.686217009,76.24564677,0.014662757
2.785923754,75.65951752,0.034701857
2.854349951,75.07338827,0.044477028
2.89540567,74.48725902,0.054740958
2.91202346,73.90112976,0.059628543
2.910068426,73.51037693,0.064516129
2.89540567,73.1196241,0.069892473
2.870967742,72.77771537,0.074780059
2.836754643,72.48465074,0.079667644
2.789833822,72.19158611,0.079667644
2.731182796,71.94736559,0.079667644
2.659824047,71.65430097,0.079667644
2.575757576,71.41008045,0.074780059
2.479960899,71.06817172,0.064516129
2.375366569,70.62857478,0.054740958
2.264907136,70.09128963,0.029814272
2.152492669,69.60284859,-0.01026393
2.042033236,69.16325165,-0.050342131
1.936461388,68.72365471,-0.090420332
1.840664712,68.38174598,-0.125610948
1.766373412,68.6259665,-0.15542522
1.706744868,70.82395119,-0.160312805
1.650048876,76.48986729,-0.145650049
1.600195503,86.06331173,-0.105571848
1.558162268,97.24861161,-0.050342131
1.521994135,107.0662766,0.009775171
1.490713587,114.0509835,0.064516129
1.461388074,118.6911734,0.10459433
1.434017595,121.7195078,0.139784946
1.407624633,123.6244279,0.159824047
1.380254154,124.3570895,0.179863148
1.352883675,124.1617131,0.189638319
1.330400782,123.4290515,0.195014663
1.309872923,122.3056371,0.199902248
1.284457478,121.0356904,0.195014663
1.257086999,119.4726791,0.199902248
1.228739003,117.6166031,0.204789834
1.201368524,115.4186184,0.199902248
1.176930596,112.9764132,0.204789834
1.153470186,110.1922992,0.224828935
1.131964809,107.1639648,0.249755621
1.113391984,103.8425657,0.26001955
1.098729228,100.3746343,0.289833822
1.086021505,96.66248236,0.329912023
1.0742913,92.99917453,0.349951124
1.066471163,89.53124313,0.345063539
1.058651026,86.74712919,0.300097752
1.042033236,84.69567681,0.22971652
1.020527859,83.23035368,0.189638319
0.999022483,82.3023157,0.184750733
0.985337243,81.61849824,0.189638319
0.994134897,81.03236899,0.195014663
1.040078201,80.69046026,0.189638319
1.133919844,80.34855153,0.249755621
1.279569892,80.10433101,0.630009775
1.470185728,79.90895459,1.215542522
1.692082111,79.66473407,1.315738025
1.896383187,79.42051355,0.520039101
2.082111437,79.12744892,0.094819159
2.271749756,78.78554019,0.049853372
2.440860215,78.34594325,0.08455523
2.576735093,77.85750221,0.10459433
2.676441838,77.22252885,0.119745846
2.742913001,76.68524371,0.124633431
2.781036168,76.09911446,0.134897361
2.797653959,75.61067341,0.144672532
2.796676442,75.21992058,0.154936461
2.782013685,74.87801185,0.164711632
2.754643206,74.53610312,0.164711632
2.714565005,74.24303849,0.169599218
2.668621701,73.85228566,0.169599218
2.613880743,73.51037693,0.174975562
2.544477028,73.1196241,0.174975562
2.463343109,72.63118305,0.169599218
2.3714565,72.09389791,0.154936461
2.270772239,71.55661276,0.134897361
2.166177908,71.06817172,0.10459433
2.061583578,70.62857478,0.069892473
1.960899316,70.18897784,0.024437928
1.867057674,69.84706911,-0.01026393
1.783968719,70.23782194,-0.03030303
1.712609971,72.68002716,-0.035190616
1.65884653,78.8832284,-0.015151515
1.616813294,88.70089336,0.024437928
1.578690127,99.69081682,0.08455523
1.544477028,108.9223525,0.144672532
1.515151515,115.4186184,0.195014663
1.490713587,119.7657437,0.234604106
1.469208211,122.5987017,0.269794721
1.449657869,124.2594013,0.294721408
1.430107527,124.8455305,0.314760508
1.410557185,124.6989982,0.325024438
1.391006843,124.0151807,0.329912023
1.3714565,122.9894546,0.339687195
1.351906158,121.7195078,0.339687195
1.336265885,120.1564965,0.339687195
1.322580645,118.2515764,0.345063539
1.304985337,116.0047476,0.339687195
1.286412512,113.5625424,0.339687195
1.267839687,110.8761167,0.339687195
1.251221896,107.9943145,0.35483871
1.235581623,104.7217596,0.37487781
1.217008798,101.3026723,0.390029326
1.201368524,97.59052034,0.414956012
1.190615836,93.97605662,0.450146628
1.177908113,90.60581343,0.470185728
1.16226784,87.82169948,0.450146628
1.147605083,85.67255889,0.394916911
1.133919844,84.15839166,0.329912023
1.11827957,83.13266547,0.284946237
1.11143695,82.3511598,0.264907136
1.12512219,81.81387466,0.264907136
1.174975562,81.37427772,0.264907136
1.271749756,80.93468078,0.254643206
1.417399804,80.54392795,0.325024438
1.605083089,80.25086332,0.730205279
1.822091887,79.90895459,1.340664712
2.047898338,79.61588996,1.460899316
2.264907136,79.32282534,0.674975562
2.456500489,78.8832284,0.189638319
2.597262952,78.49247557,0.094819159
2.697947214,78.00403452,0.10459433
2.779081134,77.41790527,0.119745846
2.836754643,76.78293192,0.129521017
2.870967742,76.19680266,0.134897361
2.887585533,75.56182931,0.144672532
2.88856305,74.92685595,0.149560117
2.875855327,74.43841491,0.154936461
2.8514174,73.99881797,0.164711632
2.815249267,73.60806514,0.164711632
2.766373412,73.2173123,0.169599218
2.705767351,72.87540357,0.169599218
2.641251222,72.48465074,0.169599218
2.57086999,72.0450538,0.159824047
2.485826002,71.60545686,0.149560117
2.390029326,71.16585992,0.134897361
2.288367546,70.67741888,0.109481916
2.184750733,70.23782194,0.074780059
2.084066471,69.79822501,0.029814272
1.991202346,69.30978396,-0.01026393
1.906158358,68.96787523,-0.045454545
1.831867058,69.65169269,-0.075268817
1.769305963,73.07077999,-0.080645161
1.716520039,80.44623974,-0.060606061
1.671554252,91.09425447,-0.015151515
1.637341153,102.2795543,0.054740958
1.610948192,111.3645577,0.119745846
1.58455523,117.6166031,0.174975562
1.559139785,121.8171961,0.224828935
1.534701857,124.6989982,0.26001955
1.51026393,126.4085419,0.284946237
1.485826002,127.1900475,0.300097752
1.460410557,127.1412034,0.309872923
1.434995112,126.5550742,0.319648094
1.409579668,125.6758803,0.325024438
1.383186706,124.5524659,0.325024438
1.357771261,123.0382987,0.325024438
1.338220919,121.2310668,0.325024438
1.322580645,119.0330821,0.325024438
1.303030303,116.639721,0.325024438
1.283479961,113.9044512,0.325024438
1.263929619,110.9249608,0.339687195
1.245356794,107.7012499,0.369990225
1.228739003,104.1844744,0.38514174
1.213098729,100.4234784,0.410068426
1.198435973,96.61363825,0.444770283
1.183773216,92.95033043,0.459921799
1.164222874,89.67777544,0.444770283
1.140762463,87.13788202,0.394916911
1.11827957,85.28180606,0.319648094
1.10459433,84.10954756,0.274682307
1.10459433,83.23035368,0.26001955
1.12512219,82.69306853,0.26001955
1.182795699,82.3023157,0.254643206
1.287390029,82.00925107,0.249755621
1.442815249,81.71618645,0.319648094
1.640273705,81.42312182,0.745356794
1.866080156,81.1300572,1.365591398
2.100684262,80.78814847,1.475562072
2.324535679,80.44623974,0.654936461
2.521016618,80.0066428,0.174975562
2.680351906,79.46935765,0.089931574
2.790811339,78.98091661,0.10459433
2.864125122,78.34594325,0.124633431
2.919843597,77.759814,0.134897361
2.956989247,77.12484065,0.144672532
2.975562072,76.48986729,0.149560117
2.979472141,75.85489394,0.149560117
2.970674487,75.31760879,0.154936461
2.94916911,74.78032364,0.164711632
2.914956012,74.3407267,0.169599218
2.868035191,73.99881797,0.169599218
2.806451613,73.60806514,0.169599218
2.732160313,73.31500051,0.169599218
2.646138807,72.97309178,0.164711632
2.561094819,72.63118305,0.154936461
2.474095797,72.19158611,0.144672532
2.373411535,71.75198918,0.119745846
2.26686217,71.21470403,0.079667644
2.159335288,70.72626299,0.039589443
2.056695992,70.23782194,-0.000488759
1.96285435,69.94475732,-0.035190616
1.879765396,70.62857478,-0.065493646
1.808406647,73.80344156,-0.070381232
1.747800587,80.88583668,-0.050342131
1.696969697,91.09425447,-0.000488759
1.655913978,101.9864897,0.064516129
1.625610948,110.9738049,0.129521017
1.601173021,117.3235385,0.189638319
1.576735093,121.5729755,0.23998045
1.553274682,124.5036218,0.269794721
1.528836755,126.2620095,0.289833822
1.504398827,126.9946711,0.304985337
1.479960899,126.945827,0.319648094
1.453567937,126.2620095,0.325024438
1.427174976,125.2851275,0.325024438
1.398826979,124.0640249,0.325024438
1.370478983,122.4521694,0.329912023
1.343108504,120.4984052,0.329912023
1.31769306,118.3004205,0.329912023
1.298142717,115.7605271,0.329912023
1.282502444,112.9764132,0.329912023
1.264907136,109.9480787,0.345063539
1.246334311,106.6755237,0.369990225
1.228739003,103.1587482,0.390029326
1.213098729,99.54428451,0.414956012
1.197458456,95.9786649,0.450146628
1.181818182,92.5595776,0.464809384
1.16226784,89.53124313,0.444770283
1.139784946,87.18672613,0.390029326
1.117302053,85.42833837,0.319648094
1.100684262,84.15839166,0.274682307
1.097751711,83.37688599,0.26001955
1.116324536,82.79075674,0.26001955
1.170087977,82.44884801,0.254643206
1.268817204,82.15578339,0.254643206
1.416422287,81.91156286,0.334799609
1.607038123,81.66734234,0.765395894
1.826979472,81.27658951,1.355816227
2.056695992,80.93468078,1.435483871
2.277614858,80.59277205,0.585043988
2.474095797,80.25086332,0.154936461
2.635386119,79.81126638,0.099706745
2.758553275,79.22513713,0.11485826
2.83773216,78.68785198,0.124633431
2.885630499,78.10172273,0.134897361
2.91886608,77.46674938,0.144672532
2.936461388,76.88062012,0.149560117
2.940371457,76.19680266,0.149560117
2.930596285,75.61067341,0.154936461
2.909090909,75.07338827,0.159824047
2.87487781,74.63379133,0.154936461
2.827956989,74.19419439,0.149560117
2.768328446,73.85228566,0.149560117
2.69599218,73.60806514,0.144672532
2.611925709,73.2173123,0.129521017
2.517106549,72.72887126,0.10459433
2.427174976,72.19158611,0.08455523
2.339198436,71.65430097,0.054740958
2.241446725,71.21470403,0.019550342
2.144672532,70.82395119,-0.025415445
2.053763441,70.28666605,-0.075268817
1.968719453,70.04244553,-0.115347019
1.891495601,70.72626299,-0.140273705
1.823069404,73.85228566,-0.145650049
1.764418377,80.73930436,-0.125610948
1.715542522,90.75234574,-0.085532747
1.675464321,101.3026723,-0.020527859
1.641251222,109.9480787,0.039589443
1.615835777,116.1024359,0.089931574
1.594330401,120.3518729,0.124633431
1.571847507,123.2825192,0.149560117
1.54740958,125.0409069,0.169599218
1.521016618,125.8224126,0.184750733
1.494623656,125.6758803,0.195014663
1.470185728,124.9432187,0.195014663
1.445747801,123.8198043,0.189638319
1.421309873,122.4521694,0.189638319
1.396871945,120.6937817,0.195014663
1.373411535,118.5934852,0.199902248
1.350928641,116.2978123,0.195014663
1.329423265,113.7579189,0.189638319
1.311827957,110.9738049,0.195014663
1.298142717,107.8477822,0.219941349
1.282502444,104.477539,0.23998045
1.267839687,100.8142312,0.269794721
1.253176931,97.00439108,0.304985337
1.237536657,93.24339506,0.325024438
1.219941349,89.82430776,0.309872923
1.198435973,86.99134971,0.269794721
1.173998045,84.84220912,0.204789834
1.149560117,83.37688599,0.154936461
1.130987292,82.3023157,0.139784946
1.129032258,81.56965413,0.134897361
1.146627566,81.1789013,0.129521017
1.193548387,80.93468078,0.124633431
1.283479961,80.78814847,0.154936461
1.420332356,80.54392795,0.450146628
1.597262952,80.34855153,1.060606061
1.801564027,80.10433101,1.250733138
2.017595308,79.81126638,0.580156403
2.226783969,79.46935765,0.054740958
2.414467253,79.02976071,-0.03030303
2.569892473,78.44363146,-0.005376344
2.68914956,77.759814,0.014662757
2.773216031,77.12484065,0.029814272
2.826979472,76.48986729,0.039589443
2.853372434,75.80604983,0.044477028
2.861192571,75.12223237,0.054740958
2.85826002,74.53610312,0.059628543
2.84457478,74.09650618,0.064516129
2.82111437,73.65690924,0.064516129
2.786901271,73.2173123,0.074780059
2.73998045,72.92424768,0.079667644
2.681329423,72.53349484,0.079667644
2.609970674,72.09389791,0.079667644
2.525904203,71.75198918,0.079667644
2.433040078,71.21470403,0.064516129
2.331378299,70.72626299,0.049853372
2.238514174,70.23782194,0.019550342
2.150537634,69.65169269,-0.015151515
2.054740958,69.16325165,-0.055229717
1.959921799,68.72365471,-0.090420332
1.871945259,68.82134292,-0.110459433
1.792766373,70.23782194,-0.115347019
1.72629521,74.78032364,-0.095307918
1.669599218,83.23035368,-0.050342131
1.622678397,93.92721252,0.014662757
1.58455523,104.0379421,0.08455523
1.551319648,111.6576224,0.149560117
1.521994135,116.7374092,0.199902248
1.494623656,120.1076524,0.23998045
1.47311828,122.256793,0.274682307
1.454545455,123.184831,0.300097752
1.432062561,123.2336751,0.319648094
1.407624633,122.5987017,0.334799609
1.380254154,121.5729755,0.349951124
1.350928641,120.1076524,0.35483871
1.321603128,118.495797,0.359726295
1.293255132,116.5420328,0.365102639
1.26686217,114.4417363,0.369990225
1.242424242,112.0972193,0.369990225
1.220918866,109.5084818,0.37487781
1.202346041,106.6755237,0.394916911
1.190615836,103.6960334,0.414956012
1.182795699,100.4234784,0.434995112
1.173020528,97.00439108,0.464809384
1.16226784,93.48761558,0.5
1.149560117,90.3127488,0.504887586
1.134897361,87.72401127,0.479960899
1.116324536,85.86793531,0.424731183
1.093841642,84.69567681,0.365102639
1.071358749,83.86532704,0.325024438
1.056695992,83.23035368,0.319648094
1.060606061,82.79075674,0.325024438
1.095796676,82.49769212,0.325024438
1.174975562,82.15578339,0.314760508
1.277614858,81.91156286,0.444770283
1.468230694,81.66734234,0.980449658
1.677419355,81.42312182,1.500977517
1.840664712,81.03236899,1.345552297
2.034213099,80.59277205,0.595307918
2.226783969,80.10433101,0.204789834
2.395894428,79.56704586,0.164711632
2.531769306,78.8832284,0.184750733
2.632453568,78.19941094,0.199902248
2.700879765,77.46674938,0.209677419
2.740957967,76.78293192,0.219941349
2.759530792,76.19680266,0.22971652
2.761485826,75.56182931,0.234604106
2.750733138,75.07338827,0.234604106
2.731182796,74.63379133,0.23998045
2.701857283,74.24303849,0.23998045
2.662756598,73.85228566,0.23998045
2.611925709,73.55922103,0.234604106
2.549364614,73.2173123,0.219941349
2.475073314,72.87540357,0.209677419
2.390029326,72.43580664,0.199902248
2.298142717,71.94736559,0.179863148
2.203323558,71.50776865,0.149560117
2.109481916,71.06817172,0.10459433
2.019550342,70.67741888,0.054740958
1.945259042,70.23782194,0.009775171
1.883675464,70.09128963,-0.03030303
1.824046921,71.06817172,-0.060606061
1.771260997,74.78032364,-0.065493646
1.72629521,82.3511598,-0.045454545
1.688172043,92.85264222,-0.000488759
1.655913978,103.500657,0.064516129
1.6285435,111.8041547,0.124633431
1.603128055,117.4700708,0.174975562
1.578690127,121.2799109,0.209677419
1.554252199,123.9174925,0.23998045
1.528836755,125.4316598,0.26001955
1.508308895,125.8712567,0.274682307
1.488758553,125.4316598,0.284946237
1.464320626,124.5524659,0.284946237
1.437927664,123.4290515,0.284946237
1.411534702,122.0614166,0.284946237
1.38514174,120.3518729,0.284946237
1.360703812,118.3492647,0.284946237
1.337243402,116.0535918,0.284946237
1.314760508,113.5136983,0.280058651
1.294232649,110.7295844,0.280058651
1.277614858,107.750094,0.289833822
1.263929619,104.4286949,0.314760508
1.252199413,100.9119194,0.325024438
1.245356794,97.29745571,0.349951124
1.240469208,93.7318361,0.379765396
1.230694037,90.50812522,0.394916911
1.216031281,87.91938769,0.37487781
1.196480938,85.96562352,0.325024438
1.175953079,84.69567681,0.254643206
1.159335288,83.71879472,0.204789834
1.157380254,83.03497726,0.189638319
1.183773216,82.49769212,0.189638319
1.249266862,82.15578339,0.189638319
1.362658847,81.81387466,0.184750733
1.523949169,81.47196593,0.264907136
1.691104594,81.1300572,0.705278592
1.864125122,80.78814847,1.325513196
2.066471163,80.44623974,1.41544477
2.269794721,80.0554869,0.565004888
2.453567937,79.61588996,0.099706745
2.620723363,79.02976071,0.024437928
2.744868035,78.44363146,0.039589443
2.816226784,77.85750221,0.054740958
2.864125122,77.22252885,0.064516129
2.892473118,76.6363996,0.074780059
2.904203324,76.00142625,0.08455523
2.902248289,75.415297,0.089931574
2.887585533,74.92685595,0.099706745
2.863147605,74.48725902,0.10459433
2.829912023,74.09650618,0.109481916
2.784946237,73.80344156,0.11485826
2.727272727,73.41268872,0.119745846
2.657869013,73.07077999,0.119745846
2.576735093,72.68002716,0.109481916
2.485826002,72.19158611,0.10459433
2.389051808,71.75198918,0.08455523
2.288367546,71.21470403,0.059628543
2.186705767,70.67741888,0.024437928
2.08797654,70.18897784,-0.015151515
1.996089932,69.65169269,-0.055229717
1.921798631,69.40747217,-0.095307918
1.862170088,70.18897784,-0.120234604
1.806451613,73.65690924,-0.125610948
1.75659824,80.98352488,-0.100195503
1.713587488,91.4850073,-0.050342131
1.677419355,102.4260867,0.009775171
1.640273705,111.3157136,0.069892473
1.608993157,117.4700708,0.124633431
1.587487781,121.6218196,0.174975562
1.56402737,124.4059336,0.209677419
1.539589443,126.1154772,0.23998045
1.514173998,126.7992947,0.254643206
1.485826002,126.6039183,0.264907136
1.462365591,125.9201008,0.269794721
1.442815249,124.9432187,0.274682307
1.419354839,123.673272,0.274682307
1.393939394,122.1102607,0.280058651
1.369501466,120.1564965,0.280058651
1.345063539,117.9096677,0.280058651
1.321603128,115.3697743,0.280058651
1.299120235,112.6345045,0.280058651
1.278592375,109.60617,0.294721408
1.259042033,106.2847709,0.314760508
1.240469208,102.7191513,0.329912023
1.223851417,99.05584346,0.35483871
1.212121212,95.29484744,0.38514174
1.202346041,91.87576014,0.394916911
1.186705767,88.94511388,0.37487781
1.160312805,86.69828508,0.325024438
1.134897361,85.13527375,0.254643206
1.120234604,84.10954756,0.209677419
1.117302053,83.4257301,0.204789834
1.171065494,83.03497726,0.209677419
1.247311828,82.74191264,0.199902248
1.330400782,82.49769212,0.189638319
1.474095797,82.25347159,0.289833822
1.693059629,81.86271876,0.76001955
1.894428152,81.47196593,1.360703812
2.052785924,81.1300572,1.420821114
2.240469208,80.69046026,0.524926686
2.450635386,80.15317511,0.094819159
2.62170088,79.61588996,0.039589443
2.735092864,79.02976071,0.054740958
2.820136852,78.44363146,0.064516129
2.868035191,77.759814,0.079667644
2.896383187,77.12484065,0.089931574
2.909090909,76.48986729,0.099706745
2.909090909,75.85489394,0.10459433
2.887585533,75.31760879,0.109481916
2.859237537,74.87801185,0.11485826
2.834799609,74.43841491,0.119745846
2.797653959,74.09650618,0.119745846
2.724340176,73.75459745,0.124633431
2.649071359,73.41268872,0.124633431
2.587487781,73.07077999,0.124633431
2.507331378,72.63118305,0.11485826
2.41544477,72.19158611,0.099706745
2.316715543,71.65430097,0.074780059
2.216031281,71.11701582,0.039589443
2.116324536,70.62857478,-0.000488759
2.004887586,70.09128963,-0.045454545
1.911045943,69.79822501,-0.080645161
1.857282502,70.53088657,-0.110459433
1.810361681,73.85228566,-0.110459433
1.76344086,80.93468078,-0.090420332
1.714565005,90.94772216,-0.045454545
1.674486804,101.4492046,0.014662757
1.648093842,109.9969228,0.074780059
1.615835777,116.1024359,0.124633431
1.580645161,120.2541847,0.169599218
1.550342131,123.0382987,0.189638319
1.527859238,124.8455305,0.209677419
1.507331378,125.5781921,0.22971652
1.47311828,125.4805039,0.23998045
1.441837732,124.7966864,0.23998045
1.417399804,123.8198043,0.234604106
1.388074291,122.5010135,0.22971652
1.360703812,120.8891581,0.22971652
1.33431085,118.9353939,0.22971652
1.307917889,116.639721,0.22971652
1.284457478,114.0509835,0.224828935
1.261974585,111.1691813,0.224828935
1.241446725,108.0431587,0.234604106
1.2228739,104.6729155,0.254643206
1.206256109,101.1072958,0.274682307
1.189638319,97.34629981,0.294721408
1.176930596,93.7318361,0.325024438
1.165200391,90.3615929,0.345063539
1.146627566,87.47979075,0.325024438
1.123167155,85.23296196,0.284946237
1.101661779,83.4745742,0.219941349
1.091886608,82.10693928,0.159824047
1.105571848,81.03236899,0.144672532
1.158357771,80.25086332,0.144672532
1.26001955,79.66473407,0.149560117
1.411534702,79.22513713,0.134897361
1.607038123,78.73669609,0.199902248
1.832844575,78.29709915,0.565004888
2.069403715,77.85750221,1.130498534
2.269794721,77.36906117,1.230694037
2.436950147,76.92946423,0.434995112
2.595307918,76.44102319,0.004398827
2.727272727,76.00142625,-0.04056696
2.826979472,75.4641411,-0.000488759
2.896383187,74.92685595,0.014662757
2.938416422,74.2918826,0.029814272
2.957966764,73.75459745,0.039589443
2.956989247,73.2173123,0.044477028
2.940371457,72.87540357,0.049853372
2.911045943,72.48465074,0.054740958
2.868035191,72.0450538,0.064516129
2.819159335,71.65430097,0.069892473
2.76344086,71.31239224,0.064516129
2.694037146,70.9216394,0.069892473
2.611925709,70.53088657,0.074780059
2.518084066,70.09128963,0.069892473
2.41544477,69.65169269,0.064516129
2.306940371,69.16325165,0.054740958
2.196480938,68.67481061,0.034701857
2.088954057,68.08868136,-0.000488759
1.986314761,67.69792852,-0.04056696
1.892473118,67.16064337,-0.080645161
1.80742913,66.81873464,-0.120234604
1.73313783,66.91642285,-0.145650049
1.674486804,68.91903113,-0.15542522
1.627565982,74.2918826,-0.140273705
1.582600196,83.4745742,-0.095307918
1.541544477,94.56218587,-0.04056696
1.50342131,104.4286949,0.019550342
1.468230694,111.5599342,0.074780059
1.434995112,116.2489682,0.11485826
1.403714565,119.4238349,0.149560117
1.373411535,121.4264432,0.179863148
1.344086022,122.3544812,0.199902248
1.315738025,122.256793,0.209677419
1.286412512,121.5729755,0.219941349
1.263929619,120.4495611,0.22971652
1.244379277,119.1307703,0.234604106
1.220918866,117.6166031,0.234604106
1.196480938,115.7605271,0.23998045
1.172043011,113.6113865,0.244868035
1.147605083,111.3157136,0.249755621
1.12512219,108.7269761,0.26001955
1.103616813,105.845174,0.280058651
1.082111437,102.8168395,0.300097752
1.062561095,99.34890809,0.319648094
1.04398827,95.78328848,0.359726295
1.024437928,92.16882476,0.38514174
1.000977517,88.74973746,0.390029326
0.980449658,85.81909121,0.349951124
0.961876833,83.4745742,0.289833822
0.939393939,81.91156286,0.234604106
0.920821114,80.93468078,0.209677419
0.920821114,80.25086332,0.209677419
0.955034213,79.81126638,0.209677419
1.035190616,79.46935765,0.199902248
1.168132942,79.32282534,0.209677419
1.350928641,79.12744892,0.430107527
1.572825024,78.9320725,1.03030303
1.815249267,78.73669609,1.380742913
2.055718475,78.59016377,0.88514174
2.252199413,78.44363146,0.234604106
2.408602151,78.10172273,0.044477028
2.548387097,77.759814,0.059628543
2.65884653,77.32021706,0.079667644
2.736070381,76.78293192,0.099706745
2.783968719,76.29449087,0.10459433
2.80742913,75.80604983,0.11485826
2.811339198,75.36645289,0.124633431
2.799608993,74.92685595,0.134897361
2.775171065,74.48725902,0.139784946
2.73998045,74.09650618,0.144672532
2.692082111,73.75459745,0.144672532
2.631476051,73.36384462,0.144672532
2.567937439,72.97309178,0.149560117
2.498533724,72.53349484,0.144672532
2.414467253,72.0450538,0.139784946
2.319648094,71.55661276,0.129521017
2.217008798,70.97048351,0.109481916
2.112414467,70.43319836,0.08455523
2.008797654,69.84706911,0.044477028
1.910068426,69.30978396,0.004398827
1.818181818,68.82134292,-0.035190616
1.737047898,68.6259665,-0.070381232
1.668621701,69.79822501,-0.085532747
1.610948192,73.90112976,-0.075268817
1.567937439,82.00925107,-0.04056696
1.536656891,92.6084217,0.014662757
1.508308895,102.8168395,0.079667644
1.484848485,110.4853639,0.134897361
1.463343109,115.7605271,0.184750733
1.443792766,119.3261467,0.224828935
1.426197458,121.6218196,0.254643206
1.409579668,122.7940781,0.280058651
1.393939394,122.9894546,0.294721408
1.376344086,122.4521694,0.304985337
1.357771261,121.4264432,0.309872923
1.337243402,120.1076524,0.319648094
1.315738025,118.5934852,0.319648094
1.298142717,116.7374092,0.319648094
1.282502444,114.5394245,0.319648094
1.264907136,112.0972193,0.319648094
1.246334311,109.5084818,0.319648094
1.227761486,106.6755237,0.325024438
1.211143695,103.6960334,0.334799609
1.195503421,100.4234784,0.35483871
1.180840665,97.05323519,0.369990225
1.167155425,93.63414789,0.399804497
1.150537634,90.21506059,0.430107527
1.129032258,87.23557023,0.444770283
1.103616813,84.74452091,0.424731183
1.084066471,82.93728905,0.365102639
1.070381232,81.71618645,0.300097752
1.065493646,80.98352488,0.254643206
1.086021505,80.54392795,0.244868035
1.144672532,80.15317511,0.244868035
1.253176931,79.86011049,0.249755621
1.413489736,79.56704586,0.23998045
1.616813294,79.17629303,0.334799609
1.846529814,78.78554019,0.795210166
2.084066471,78.49247557,1.420821114
2.307917889,78.19941094,1.500977517
2.501466276,77.80865811,0.620234604
2.655913978,77.41790527,0.149560117
2.760508309,76.97830833,0.069892473
2.826979472,76.53871139,0.079667644
2.872922776,76.09911446,0.099706745
2.897360704,75.56182931,0.109481916
2.904203324,74.92685595,0.119745846
2.897360704,74.24303849,0.124633431
2.876832845,73.60806514,0.129521017
2.84457478,73.1196241,0.139784946
2.80058651,72.53349484,0.144672532
2.744868035,72.0450538,0.149560117
2.676441838,71.55661276,0.149560117
2.596285435,71.11701582,0.154936461
2.515151515,70.8727953,0.149560117
2.433040078,70.53088657,0.144672532
2.338220919,70.23782194,0.134897361
2.237536657,69.79822501,0.119745846
2.135874878,69.40747217,0.094819159
2.03714565,69.11440755,0.064516129
1.944281525,68.82134292,0.024437928
1.862170088,68.28405777,-0.020527859
1.790811339,67.99099315,-0.060606061
1.732160313,68.6259665,-0.085532747
1.683284457,71.80083328,-0.085532747
1.642228739,78.9320725,-0.065493646
1.611925709,89.23817851,-0.015151515
1.587487781,99.98388145,0.049853372
1.563049853,108.6292879,0.11485826
1.537634409,114.6371127,0.174975562
1.513196481,118.6911734,0.219941349
1.48973607,121.5729755,0.254643206
1.46627566,123.4290515,0.280058651
1.442815249,124.3082454,0.294721408
1.418377322,124.3082454,0.304985337
1.392961877,123.673272,0.309872923
1.367546432,122.6963899,0.319648094
1.34115347,121.4264432,0.325024438
1.315738025,119.8634319,0.329912023
1.296187683,117.9096677,0.325024438
1.28054741,115.6139948,0.319648094
1.262952102,113.0741014,0.319648094
1.24340176,110.1922992,0.325024438
1.224828935,107.1151207,0.334799609
1.208211144,103.7937216,0.359726295
1.19257087,100.3257902,0.37487781
1.176930596,96.61363825,0.399804497
1.160312805,92.99917453,0.430107527
1.139784946,89.62893134,0.450146628
1.114369501,86.74712919,0.439882698
1.08797654,84.5491445,0.394916911
1.069403715,82.83960085,0.325024438
1.064516129,81.71618645,0.269794721
1.077223851,80.98352488,0.254643206
1.123167155,80.54392795,0.254643206
1.217008798,80.25086332,0.26001955
1.363636364,80.0066428,0.249755621
1.558162268,79.81126638,0.289833822
1.785923754,79.56704586,0.61485826
2.028347996,79.22513713,1.255620723
2.263929619,78.9320725,1.460899316
2.474095797,78.54131967,0.820136852
2.650048876,78.10172273,0.23998045
2.784946237,77.66212579,0.08455523
2.872922776,77.17368475,0.089931574
2.9257087,76.53871139,0.10459433
2.961876833,75.90373804,0.124633431
2.979472141,75.31760879,0.129521017
2.982404692,74.73147954,0.134897361
2.970674487,74.09650618,0.144672532
2.945259042,73.60806514,0.149560117
2.907135875,73.1196241,0.154936461
2.855327468,72.72887126,0.164711632
2.791788856,72.38696253,0.164711632
2.716520039,71.9962097,0.169599218
2.629521017,71.60545686,0.169599218
2.544477028,71.21470403,0.164711632
2.457478006,70.82395119,0.159824047
2.357771261,70.28666605,0.144672532
2.252199413,69.79822501,0.124633431
2.145650049,69.35862807,0.094819159
2.042033236,68.87018702,0.049853372
1.946236559,68.38174598,0.004398827
1.862170088,67.94214904,-0.035190616
1.788856305,68.08868136,-0.065493646
1.72629521,70.18897784,-0.075268817
1.674486804,75.61067341,-0.065493646
1.631476051,84.5979886,-0.025415445
1.596285435,95.19715923,0.029814272
1.57086999,104.6240714,0.094819159
1.549364614,111.5599342,0.154936461
1.525904203,116.3466564,0.199902248
1.500488759,119.8145878,0.234604106
1.474095797,122.0614166,0.264907136
1.447702835,123.2825192,0.280058651
1.421309873,123.6244279,0.294721408
1.395894428,123.0382987,0.304985337
1.370478983,122.1102607,0.304985337
1.345063539,120.7914699,0.309872923
1.321603128,119.1796144,0.309872923
1.296187683,117.128162,0.309872923
1.276637341,114.8813332,0.309872923
1.260997067,112.2925957,0.309872923
1.241446725,109.5573259,0.309872923
1.221896383,106.5289914,0.319648094
1.223851417,103.3052805,0.339687195
1.238514174,99.93503734,0.359726295
1.239491691,96.41826183,0.38514174
1.232649071,92.95033043,0.419843597
1.218963832,89.53124313,0.444770283
1.200391007,86.69828508,0.450146628
1.179863148,84.40261218,0.399804497
1.161290323,82.74191264,0.334799609
1.151515152,81.56965413,0.274682307
1.158357771,80.69046026,0.244868035
1.189638319,80.0554869,0.23998045
1.258064516,79.61588996,0.23998045
1.372434018,79.32282534,0.22971652
1.532746823,79.02976071,0.244868035
1.730205279,78.78554019,0.484848485
1.94916911,78.44363146,1.080645161
2.171065494,78.10172273,1.395894428
2.37829912,77.759814,0.89540567
2.557184751,77.36906117,0.269794721
2.699902248,76.92946423,0.074780059
2.806451613,76.48986729,0.069892473
2.872922776,75.90373804,0.08455523
2.909090909,75.415297,0.094819159
2.930596285,74.87801185,0.099706745
2.938416422,74.3407267,0.10459433
2.933528837,73.85228566,0.109481916
2.915933529,73.36384462,0.11485826
2.886608016,72.92424768,0.109481916
2.84457478,72.48465074,0.109481916
2.788856305,72.09389791,0.109481916
2.722385142,71.75198918,0.109481916
2.64516129,71.31239224,0.109481916
2.557184751,70.8727953,0.109481916
2.461388074,70.38435426,0.099706745
2.372434018,69.84706911,0.08455523
2.287390029,69.30978396,0.064516129
2.194525904,68.72365471,0.034701857
2.101661779,68.23521367,-0.005376344
2.012707722,67.69792852,-0.045454545
1.931573803,67.16064337,-0.080645161
1.861192571,67.11179927,-0.105571848
1.80058651,68.43059009,-0.115347019
1.749755621,72.77771537,-0.115347019
1.707722385,80.69046026,-0.090420332
1.672531769,90.75234574,-0.045454545
1.642228739,100.3257902,0.014662757
1.619745846,107.750094,0.069892473
1.600195503,112.878725,0.11485826
1.578690127,116.3466564,0.149560117
1.557184751,118.7400175,0.164711632
1.535679374,120.0588083,0.184750733
1.513196481,120.4984052,0.195014663
1.48973607,120.1076524,0.199902248
1.46627566,119.1307703,0.204789834
1.441837732,117.6654472,0.204789834
1.417399804,115.9070594,0.204789834
1.393939394,113.9044512,0.204789834
1.370478983,111.6576224,0.199902248
1.34799609,109.166573,0.199902248
1.332355816,106.4313032,0.209677419
1.319648094,103.4518128,0.224828935
1.303030303,100.228102,0.234604106
1.286412512,96.85785877,0.249755621
1.270772239,93.29223916,0.280058651
1.254154448,89.82430776,0.319648094
1.23655914,86.55175277,0.329912023
1.217008798,83.71879472,0.309872923
1.193548387,81.56965413,0.254643206
1.169110459,80.0066428,0.195014663
1.149560117,78.8832284,0.159824047
1.145650049,78.05287863,0.144672532
1.161290323,77.56443758,0.144672532
1.207233627,77.17368475,0.139784946
1.2971652,76.88062012,0.134897361
1.434017595,76.6363996,0.209677419
1.612903226,76.34333498,0.62512219
1.82111437,76.09911446,1.16568915
2.039100684,75.85489394,1.190615836
2.249266862,75.4641411,0.314760508
2.43597263,75.12223237,-0.020527859
2.588465298,74.68263543,-0.04056696
2.703812317,74.19419439,0.014662757
2.782991202,73.65690924,0.034701857
2.830889541,73.1196241,0.044477028
2.850439883,72.53349484,0.054740958
2.8514174,72.0450538,0.064516129
2.840664712,71.50776865,0.069892473
2.818181818,71.06817172,0.074780059
2.784946237,70.67741888,0.079667644
2.740957967,70.28666605,0.08455523
2.687194526,69.99360142,0.089931574
2.62170088,69.65169269,0.094819159
2.545454545,69.40747217,0.089931574
2.458455523,69.11440755,0.08455523
2.363636364,68.72365471,0.079667644
2.262952102,68.28405777,0.064516129
2.171065494,67.84446083,0.039589443
2.086021505,67.4048639,0.009775171
1.996089932,66.96526696,-0.03030303
1.908113392,66.47682591,-0.070381232
1.826979472,66.03722898,-0.105571848
1.754643206,66.13491718,-0.130498534
1.693059629,67.84446083,-0.130498534
1.641251222,72.92424768,-0.105571848
1.599217986,81.61849824,-0.060606061
1.56402737,92.21766887,-0.000488759
1.534701857,101.7911133,0.059628543
1.508308895,108.7269761,0.11485826
1.483870968,113.367166,0.159824047
1.464320626,116.3466564,0.195014663
1.447702835,118.2515764,0.219941349
1.426197458,118.984238,0.234604106
1.401759531,118.7400175,0.249755621
1.377321603,117.8119795,0.26001955
1.352883675,116.4443446,0.264907136
1.328445748,114.7348009,0.264907136
1.30400782,112.7810368,0.269794721
1.281524927,110.6318962,0.269794721
1.259042033,108.2385351,0.269794721
1.238514174,105.7474857,0.269794721
1.219941349,103.06106,0.280058651
1.207233627,100.1792579,0.309872923
1.200391007,97.05323519,0.329912023
1.191593353,93.7318361,0.349951124
1.182795699,90.3615929,0.38514174
1.172043011,87.23557023,0.414956012
1.158357771,84.50030039,0.419843597
1.139784946,82.3511598,0.38514174
1.11827957,80.88583668,0.319648094
1.094819159,79.81126638,0.264907136
1.078201369,79.12744892,0.23998045
1.079178886,78.59016377,0.23998045
1.112414467,78.29709915,0.244868035
1.188660802,78.00403452,0.234604106
1.289345064,77.66212579,0.244868035
1.419354839,77.41790527,0.455034213
1.599217986,77.17368475,1.045454545
1.811339198,76.97830833,1.395894428
2.034213099,76.68524371,0.920332356
2.247311828,76.34333498,0.274682307
2.434017595,75.90373804,0.079667644
2.582600196,75.415297,0.074780059
2.691104594,74.97570006,0.10459433
2.761485826,74.43841491,0.119745846
2.799608993,73.80344156,0.129521017
2.812316716,73.2173123,0.144672532
2.806451613,72.63118305,0.154936461
2.786901271,72.09389791,0.159824047
2.757575758,71.65430097,0.164711632
2.718475073,71.31239224,0.169599218
2.669599218,70.9216394,0.174975562
2.610948192,70.53088657,0.179863148
2.542521994,70.18897784,0.179863148
2.465298143,69.79822501,0.184750733
2.380254154,69.35862807,0.174975562
2.288367546,68.87018702,0.164711632
2.194525904,68.28405777,0.149560117
2.102639296,67.74677263,0.129521017
2.024437928,67.25833158,0.094819159
1.956989247,66.72104644,0.049853372
1.889540567,66.2814495,0.009775171
1.828934506,66.18376129,-0.025415445
1.7771261,67.30717569,-0.04056696
1.734115347,71.31239224,-0.035190616
1.698924731,79.17629303,-0.000488759
1.670576735,89.72661955,0.049853372
1.647116325,99.93503734,0.109481916
1.626588465,107.6035617,0.169599218
1.60801564,112.7810368,0.214565005
1.590420332,116.3466564,0.254643206
1.572825024,118.9353939,0.280058651
1.559139785,120.3518729,0.300097752
1.546432063,120.8891581,0.314760508
1.528836755,120.4495611,0.325024438
1.509286413,119.4238349,0.334799609
1.487781036,118.2027323,0.339687195
1.46627566,116.639721,0.339687195
1.445747801,114.8813332,0.339687195
1.425219941,112.7810368,0.339687195
1.406647116,110.4853639,0.339687195
1.389051808,107.9943145,0.339687195
1.3714565,105.1613565,0.345063539
1.35483871,102.2307102,0.365102639
1.344086022,99.05584346,0.38514174
1.336265885,95.73444437,0.399804497
1.324535679,92.36420118,0.430107527
1.31085044,89.04280209,0.455034213
1.294232649,86.11215583,0.459921799
1.272727273,83.81648293,0.424731183
1.249266862,82.05809518,0.359726295
1.228739003,80.88583668,0.300097752
1.219941349,80.0554869,0.26001955
1.235581623,79.37166944,0.254643206
1.290322581,78.8832284,0.254643206
1.392961877,78.44363146,0.249755621
1.545454545,78.05287863,0.244868035
1.708699902,77.759814,0.450146628
1.883675464,77.41790527,1.035190616
2.091886608,77.12484065,1.480938416
2.305962854,76.73408781,1.085532747
2.504398827,76.44102319,0.390029326
2.671554252,76.05027035,0.10459433
2.802541544,75.65951752,0.08455523
2.896383187,75.17107648,0.099706745
2.956989247,74.63379133,0.11485826
2.991202346,74.04766208,0.129521017
3.002932551,73.51037693,0.134897361
2.998044966,72.92424768,0.144672532
2.979472141,72.43580664,0.149560117
2.950146628,71.94736559,0.154936461
2.911045943,71.41008045,0.159824047
2.861192571,71.06817172,0.164711632
2.80058651,70.72626299,0.169599218
2.728250244,70.43319836,0.164711632
2.647116325,70.04244553,0.164711632
2.557184751,69.60284859,0.159824047
2.460410557,69.16325165,0.149560117
2.360703812,68.67481061,0.124633431
2.260997067,68.23521367,0.094819159
2.164222874,67.79561673,0.054740958
2.0742913,67.35601979,0.014662757
2.000977517,66.91642285,-0.03030303
1.940371457,66.86757875,-0.060606061
1.882697947,68.23521367,-0.080645161
1.830889541,72.77771537,-0.075268817
1.785923754,81.1789013,-0.045454545
1.748778104,91.87576014,0.009775171
1.717497556,101.9864897,0.074780059
1.690127077,109.60617,0.134897361
1.664711632,114.783645,0.189638319
1.642228739,118.3492647,0.234604106
1.618768328,120.9380022,0.264907136
1.595307918,122.5498576,0.280058651
1.576735093,123.2336751,0.294721408
1.561094819,122.9894546,0.304985337
1.541544477,122.256793,0.304985337
1.519061584,121.1822227,0.309872923
1.494623656,119.8145878,0.309872923
1.470185728,118.2027323,0.309872923
1.445747801,116.1024359,0.309872923
1.423264907,113.806763,0.309872923
1.400782014,111.2180254,0.309872923
1.379276637,108.3850674,0.319648094
1.359726295,105.3078888,0.345063539
1.343108504,101.9864897,0.365102639
1.327468231,98.46971421,0.390029326
1.315738025,94.9040946,0.424731183
1.304985337,91.38731909,0.444770283
1.289345064,88.16360821,0.434995112
1.269794721,85.57487069,0.399804497
1.246334311,83.57226241,0.329912023
1.226783969,82.05809518,0.264907136
1.219941349,80.98352488,0.23998045
1.238514174,80.29970742,0.234604106
1.295210166,79.86011049,0.23998045
1.399804497,79.56704586,0.22971652
1.54056696,79.22513713,0.26001955
1.718475073,78.98091661,0.549853372
1.901270772,78.68785198,1.180351906
2.084066471,78.34594325,1.4257087
2.289345064,78.00403452,0.860215054
2.486803519,77.56443758,0.249755621
2.656891496,77.12484065,0.074780059
2.792766373,76.68524371,0.079667644
2.893450635,76.19680266,0.099706745
2.961876833,75.61067341,0.109481916
3.002932551,74.97570006,0.119745846
3.021505376,74.43841491,0.129521017
3.022482893,73.85228566,0.134897361
3.007820137,73.36384462,0.139784946
2.980449658,72.87540357,0.144672532
2.944281525,72.43580664,0.149560117
2.898338221,72.0450538,0.154936461
2.838709677,71.65430097,0.159824047
2.768328446,71.36123634,0.159824047
2.687194526,70.97048351,0.154936461
2.594330401,70.53088657,0.149560117
2.494623656,70.04244553,0.134897361
2.390029326,69.60284859,0.109481916
2.283479961,69.11440755,0.079667644
2.179863148,68.6259665,0.039589443
2.08113392,68.18636956,-0.005376344
1.990224829,67.74677263,-0.045454545
1.91886608,67.94214904,-0.075268817
1.861192571,69.79822501,-0.085532747
1.80742913,74.97570006,-0.075268817
1.759530792,83.86532704,-0.035190616
1.71945259,94.51334177,0.024437928
1.686217009,104.0379421,0.089931574
1.656891496,111.1691813,0.149560117
1.630498534,116.0535918,0.199902248
1.606060606,119.4238349,0.234604106
1.582600196,121.7195078,0.26001955
1.559139785,122.9894546,0.274682307
1.534701857,123.3802074,0.284946237
1.511241447,122.9894546,0.289833822
1.491691105,122.1102607,0.294721408
1.47311828,120.9380022,0.294721408
1.450635386,119.4238349,0.294721408
1.426197458,117.567759,0.294721408
1.399804497,115.3697743,0.300097752
1.374389052,112.9275691,0.300097752
1.349951124,110.2411433,0.300097752
1.327468231,107.3104971,0.314760508
1.306940371,104.1356303,0.339687195
1.289345064,100.716543,0.359726295
1.27370479,97.1997675,0.379765396
1.258064516,93.63414789,0.410068426
1.245356794,90.21506059,0.430107527
1.232649071,87.28441433,0.414956012
1.214076246,84.93989733,0.365102639
1.191593353,83.13266547,0.294721408
1.172043011,81.81387466,0.249755621
1.167155425,80.88583668,0.22971652
1.190615836,80.25086332,0.22971652
1.254154448,79.81126638,0.22971652
1.365591398,79.46935765,0.219941349
1.525904203,79.22513713,0.294721408
1.72629521,78.98091661,0.719941349
1.950146628,78.73669609,1.325513196
2.177908113,78.44363146,1.420821114
2.366568915,78.05287863,0.575268817
2.521994135,77.66212579,0.119745846
2.667644184,77.22252885,0.054740958
2.788856305,76.73408781,0.064516129
2.877810362,76.19680266,0.074780059
2.937438905,75.61067341,0.089931574
2.972629521,74.97570006,0.089931574
2.987292278,74.43841491,0.094819159
2.985337243,73.85228566,0.094819159
2.96969697,73.41268872,0.099706745
2.942326491,72.92424768,0.10459433
2.902248289,72.53349484,0.10459433
2.855327468,72.09389791,0.10459433
2.80058651,71.75198918,0.099706745
2.731182796,71.36123634,0.094819159
2.650048876,70.97048351,0.089931574
2.558162268,70.53088657,0.079667644
2.457478006,70.09128963,0.064516129
2.351906158,69.60284859,0.034701857
2.245356794,69.06556344,-0.000488759
2.14173998,68.52827829,-0.045454545
2.044965787,67.99099315,-0.090420332
1.956989247,67.55139621,-0.120234604
1.880742913,67.84446083,-0.145650049
1.816226784,70.09128963,-0.150537634
1.767350929,75.85489394,-0.120234604
1.730205279,84.98874143,-0.075268817
1.694037146,95.34369154,-0.015151515
1.661779081,104.4286949,0.039589443
1.632453568,110.9249608,0.08455523
1.607038123,115.3209302,0.124633431
1.583577713,118.2515764,0.154936461
1.560117302,120.2541847,0.179863148
1.536656891,121.2799109,0.195014663
1.511241447,121.4264432,0.199902248
1.485826002,120.7426258,0.209677419
1.45943304,119.6680555,0.209677419
1.437927664,118.3492647,0.209677419
1.418377322,116.7862533,0.209677419
1.395894428,114.8813332,0.204789834
1.373411535,112.6345045,0.209677419
1.350928641,110.094611,0.209677419
1.328445748,107.3104971,0.219941349
1.307917889,104.1844744,0.23998045
1.290322581,100.716543,0.254643206
1.27370479,97.1997675,0.284946237
1.258064516,93.43877147,0.325024438
1.240469208,89.87315186,0.345063539
1.221896383,86.60059687,0.329912023
1.207233627,84.01185935,0.280058651
1.191593353,81.91156286,0.204789834
1.170087977,80.49508384,0.159824047
1.151515152,79.56704586,0.149560117
1.146627566,79.02976071,0.149560117
1.168132942,78.73669609,0.149560117
1.22971652,78.44363146,0.134897361
1.339198436,78.10172273,0.179863148
1.495601173,77.85750221,0.540078201
1.68914956,77.759814,1.130498534
1.906158358,77.66212579,1.230694037
2.126099707,77.61328169,0.430107527
2.332355816,77.46674938,-0.000488759
2.492668622,77.41790527,-0.04056696
2.612903226,77.12484065,0.004398827
2.716520039,76.53871139,0.019550342
2.793743891,75.65951752,0.029814272
2.845552297,74.73147954,0.039589443
2.873900293,73.85228566,0.049853372
2.882697947,72.97309178,0.054740958
2.87487781,72.09389791,0.064516129
2.854349951,71.31239224,0.074780059
2.820136852,70.72626299,0.079667644
2.773216031,70.53088657,0.079667644
2.712609971,70.72626299,0.074780059
2.648093842,71.11701582,0.069892473
2.57771261,71.60545686,0.064516129
2.491691105,71.84967738,0.059628543
2.394916911,71.65430097,0.049853372
2.291300098,71.16585992,0.024437928
2.18572825,70.38435426,-0.005376344
2.08113392,69.35862807,-0.045454545
1.982404692,68.23521367,-0.080645161
1.893450635,67.30717569,-0.120234604
1.815249267,66.96526696,-0.145650049
1.747800587,68.38174598,-0.150537634
1.68914956,73.1196241,-0.120234604
1.640273705,81.86271876,-0.080645161
1.605083089,92.95033043,-0.020527859
1.57771261,103.1587482,0.039589443
1.552297165,110.6807403,0.099706745
1.527859238,115.6628389,0.144672532
1.504398827,118.984238,0.179863148
1.480938416,121.1333786,0.204789834
1.457478006,121.9148843,0.224828935
1.432062561,121.4752873,0.234604106
1.405669599,120.0588083,0.244868035
1.37829912,118.1050441,0.249755621
1.350928641,116.1024359,0.254643206
1.324535679,114.0998276,0.254643206
1.304985337,112.1949075,0.254643206
1.290322581,110.094611,0.254643206
1.272727273,107.9943145,0.26001955
1.254154448,105.6009534,0.269794721
1.235581623,102.9145277,0.294721408
1.217986315,99.93503734,0.309872923
1.202346041,96.61363825,0.339687195
1.188660802,93.19455095,0.37487781
1.174975562,89.72661955,0.399804497
1.159335288,86.60059687,0.404692082
1.140762463,84.15839166,0.35483871
1.119257087,82.44884801,0.289833822
1.095796676,81.2277454,0.23998045
1.08113392,80.34855153,0.219941349
1.079178886,79.76242228,0.219941349
1.095796676,79.37166944,0.219941349
1.147605083,79.17629303,0.219941349
1.246334311,78.98091661,0.244868035
1.392961877,78.78554019,0.524926686
1.582600196,78.68785198,1.125610948
1.799608993,78.49247557,1.325513196
2.024437928,78.24825504,0.73998045
2.237536657,77.85750221,0.189638319
2.423264907,77.41790527,0.069892473
2.572825024,76.92946423,0.094819159
2.673509286,76.44102319,0.11485826
2.737047898,75.90373804,0.129521017
2.781036168,75.415297,0.144672532
2.803519062,74.87801185,0.154936461
2.809384164,74.2918826,0.164711632
2.80058651,73.65690924,0.169599218
2.780058651,73.1196241,0.174975562
2.748778104,72.68002716,0.174975562
2.704789834,72.38696253,0.184750733
2.649071359,72.0450538,0.184750733
2.582600196,71.80083328,0.184750733
2.505376344,71.50776865,0.184750733
2.418377322,71.11701582,0.179863148
2.335288368,70.53088657,0.169599218
2.254154448,69.94475732,0.149560117
2.165200391,69.26093986,0.119745846
2.075268817,68.6259665,0.079667644
1.989247312,68.03983725,0.039589443
1.911045943,67.55139621,-0.000488759
1.842619746,67.55139621,-0.03030303
1.783968719,69.26093986,-0.04056696
1.735092864,74.19419439,-0.03030303
1.695014663,82.83960085,0.009775171
1.661779081,93.63414789,0.069892473
1.634408602,103.3541246,0.129521017
1.613880743,110.4853639,0.184750733
1.599217986,115.3697743,0.22971652
1.58455523,118.7400175,0.269794721
1.567937439,121.0356904,0.294721408
1.550342131,122.3056371,0.314760508
1.530791789,122.5987017,0.325024438
1.509286413,122.1591048,0.334799609
1.485826002,121.4264432,0.339687195
1.460410557,120.3030288,0.339687195
1.43597263,118.9353939,0.339687195
1.411534702,117.1770061,0.339687195
1.387096774,115.1255538,0.334799609
1.365591398,112.6833486,0.334799609
1.349951124,109.9969228,0.334799609
1.338220919,107.0662766,0.345063539
1.323558162,103.8425657,0.369990225
1.307917889,100.4723225,0.38514174
1.293255132,96.90670288,0.410068426
1.279569892,93.29223916,0.444770283
1.263929619,89.82430776,0.459921799
1.244379277,86.79597329,0.444770283
1.220918866,84.5491445,0.394916911
1.195503421,83.03497726,0.319648094
1.175953079,82.15578339,0.269794721
1.173020528,81.71618645,0.254643206
1.191593353,81.47196593,0.254643206
1.240469208,81.1789013,0.254643206
1.335288368,80.59277205,0.249755621
1.479960899,80.0066428,0.319648094
1.667644184,79.32282534,0.730205279
1.884652981,78.68785198,1.365591398
2.113391984,78.19941094,1.495601173
2.33431085,77.759814,0.705278592
2.530791789,77.36906117,0.195014663
2.691104594,76.97830833,0.089931574
2.813294233,76.6363996,0.099706745
2.900293255,76.09911446,0.11485826
2.955034213,75.65951752,0.124633431
2.980449658,75.17107648,0.134897361
2.986314761,74.68263543,0.144672532
2.980449658,74.24303849,0.149560117
2.963831867,73.80344156,0.154936461
2.9257087,73.36384462,0.159824047
2.869012708,72.92424768,0.164711632
2.809384164,72.43580664,0.169599218
2.741935484,71.9962097,0.164711632
2.663734115,71.60545686,0.164711632
2.575757576,71.21470403,0.159824047
2.478983382,70.82395119,0.154936461
2.376344086,70.38435426,0.134897361
2.283479961,69.94475732,0.10459433
2.196480938,69.55400448,0.074780059
2.10459433,69.16325165,0.029814272
2.014662757,68.82134292,-0.015151515
1.930596285,68.47943419,-0.055229717
1.856304985,69.11440755,-0.080645161
1.791788856,72.19158611,-0.085532747
1.736070381,79.02976071,-0.065493646
1.68914956,89.1893344,-0.015151515
1.650048876,100.1304138,0.054740958
1.616813294,109.0688848,0.119745846
1.587487781,115.3209302,0.179863148
1.562072336,119.5703673,0.224828935
1.541544477,122.5010135,0.26001955
1.522971652,124.4059336,0.280058651
1.501466276,125.2851275,0.294721408
1.478005865,125.2851275,0.304985337
1.453567937,124.7478423,0.309872923
1.427174976,123.8686484,0.309872923
1.399804497,122.6963899,0.309872923
1.3714565,121.1822227,0.314760508
1.343108504,119.3749908,0.314760508
1.314760508,117.2258503,0.319648094
1.288367546,114.8813332,0.314760508
1.263929619,112.1949075,0.319648094
1.245356794,109.2642613,0.345063539
1.231671554,106.0405504,0.365102639
1.217986315,102.6214631,0.38514174
1.205278592,99.05584346,0.419843597
1.191593353,95.34369154,0.444770283
1.175953079,91.92460424,0.450146628
1.157380254,88.84742567,0.414956012
1.134897361,86.35637635,0.349951124
1.112414467,84.5491445,0.284946237
1.097751711,83.23035368,0.254643206
1.103616813,82.44884801,0.249755621
1.144672532,81.91156286,0.249755621
1.231671554,81.66734234,0.23998045
1.343108504,81.42312182,0.249755621
1.482893451,81.2277454,0.464809384
1.675464321,80.93468078,1.070381232
1.898338221,80.69046026,1.480938416
2.129032258,80.29970742,1.035190616
2.34799609,79.86011049,0.35483871
2.538611926,79.37166944,0.094819159
2.691104594,78.78554019,0.08455523
2.806451613,78.19941094,0.10459433
2.887585533,77.56443758,0.119745846
2.939393939,76.88062012,0.124633431
2.966764418,76.24564677,0.129521017
2.972629521,75.65951752,0.134897361
2.964809384,75.12223237,0.144672532
2.947214076,74.68263543,0.149560117
2.919843597,74.24303849,0.159824047
2.879765396,73.90112976,0.164711632
2.827956989,73.60806514,0.169599218
2.764418377,73.2173123,0.164711632
2.688172043,72.72887126,0.159824047
2.599217986,72.24043022,0.149560117
2.502443793,71.65430097,0.134897361
2.397849462,71.06817172,0.11485826
2.290322581,70.48204247,0.08455523
2.182795699,69.99360142,0.044477028
2.090909091,69.60284859,-0.000488759
2.009775171,69.26093986,-0.035190616
1.928641251,69.35862807,-0.070381232
1.855327468,71.06817172,-0.090420332
1.790811339,75.80604983,-0.080645161
1.736070381,84.30492397,-0.04056696
1.68914956,94.8552505,0.014662757
1.650048876,104.8194478,0.079667644
1.616813294,112.3902839,0.139784946
1.587487781,117.567759,0.189638319
1.560117302,121.1822227,0.22971652
1.53372434,123.6244279,0.254643206
1.512218964,125.0409069,0.274682307
1.493646139,125.5781921,0.284946237
1.471163245,125.2851275,0.294721408
1.446725318,124.5524659,0.300097752
1.420332356,123.4778956,0.304985337
1.392961877,122.1591048,0.300097752
1.364613881,120.4495611,0.300097752
1.337243402,118.4469529,0.300097752
1.311827957,116.0535918,0.294721408
1.287390029,113.367166,0.294721408
1.264907136,110.4365198,0.309872923
1.242424242,107.261653,0.339687195
1.226783969,103.7937216,0.35483871
1.216031281,100.228102,0.379765396
1.202346041,96.56479415,0.414956012
1.184750733,92.99917453,0.430107527
1.165200391,89.82430776,0.404692082
1.143695015,87.18672613,0.35483871
1.119257087,85.18411785,0.284946237
1.097751711,83.66995062,0.234604106
1.088954057,82.69306853,0.219941349
1.10459433,82.05809518,0.219941349
1.159335288,81.61849824,0.214565005
1.261974585,81.27658951,0.209677419
1.414467253,81.03236899,0.304985337
1.57771261,80.73930436,0.780058651
1.752688172,80.49508384,1.345552297
1.96285435,80.10433101,1.375855327
2.179863148,79.66473407,0.450146628
2.382209189,79.17629303,0.059628543
2.554252199,78.68785198,0.014662757
2.68914956,78.10172273,0.024437928
2.788856305,77.56443758,0.044477028
2.856304985,76.97830833,0.059628543
2.896383187,76.44102319,0.064516129
2.913978495,75.85489394,0.069892473
2.914956012,75.31760879,0.069892473
2.902248289,74.78032364,0.074780059
2.879765396,74.2918826,0.074780059
2.846529814,73.85228566,0.069892473
2.802541544,73.41268872,0.064516129
2.745845552,72.97309178,0.064516129
2.677419355,72.43580664,0.069892473
2.596285435,71.94736559,0.059628543
2.50342131,71.31239224,0.049853372
2.402737048,70.67741888,0.034701857
2.295210166,70.04244553,0.004398827
2.18572825,69.35862807,-0.03030303
2.079178886,68.72365471,-0.075268817
1.978494624,68.08868136,-0.125610948
1.896383187,67.69792852,-0.160312805
1.828934506,68.08868136,-0.170576735
1.765395894,70.72626299,-0.170576735
1.708699902,77.12484065,-0.145650049
1.660801564,86.9425056,-0.095307918
1.619745846,97.68820854,-0.03030303
1.58455523,106.822056,0.029814272
1.553274682,113.3183219,0.079667644
1.524926686,117.6654472,0.119745846
1.498533724,120.5960934,0.144672532
1.47311828,122.5010135,0.169599218
1.447702835,123.2825192,0.189638319
1.426197458,123.2336751,0.195014663
1.406647116,122.5498576,0.199902248
1.384164223,121.5729755,0.209677419
1.358748778,120.3030288,0.209677419
1.331378299,118.7888616,0.204789834
1.303030303,116.9816297,0.204789834
1.274682307,114.8813332,0.209677419
1.247311828,112.4879721,0.214565005
1.221896383,109.7527023,0.234604106
1.197458456,106.7243678,0.254643206
1.175953079,103.4518128,0.274682307
1.156402737,99.88619324,0.309872923
1.136852395,96.22288542,0.329912023
1.122189638,92.6084217,0.334799609
1.107526882,89.28702261,0.300097752
1.085043988,86.50290867,0.22971652
1.055718475,84.35376808,0.169599218
1.024437928,82.83960085,0.149560117
0.999022483,81.86271876,0.149560117
0.990224829,81.1789013,0.144672532
1.012707722,80.78814847,0.129521017
1.078201369,80.44623974,0.149560117
1.196480938,80.15317511,0.394916911
1.363636364,79.86011049,0.985337243
1.57086999,79.56704586,1.215542522
1.769305963,79.22513713,0.64516129
1.958944282,78.8832284,0.074780059
2.161290323,78.44363146,-0.035190616
2.349951124,78.00403452,-0.000488759
2.508308895,77.46674938,0.019550342
2.629521017,76.92946423,0.034701857
2.714565005,76.34333498,0.039589443
2.769305963,75.90373804,0.054740958
2.797653959,75.4641411,0.059628543
2.806451613,75.07338827,0.059628543
2.799608993,74.68263543,0.064516129
2.779081134,74.3407267,0.074780059
2.745845552,74.04766208,0.079667644
2.705767351,73.65690924,0.079667644
2.656891496,73.31500051,0.079667644
2.594330401,72.87540357,0.079667644
2.518084066,72.38696253,0.079667644
2.42913001,71.80083328,0.069892473
2.330400782,71.21470403,0.054740958
2.224828935,70.67741888,0.024437928
2.116324536,70.18897784,-0.01026393
2.008797654,69.7493809,-0.045454545
1.906158358,69.30978396,-0.080645161
1.813294233,69.16325165,-0.100195503
1.731182796,70.28666605,-0.110459433
1.667644184,74.09650618,-0.095307918
1.617790811,81.71618645,-0.050342131
1.57086999,92.11998066,0.004398827
1.529814272,102.3772426,0.069892473
1.494623656,110.4365198,0.129521017
1.465298143,115.9070594,0.179863148
1.439882698,119.5703673,0.214565005
1.41544477,121.8171961,0.244868035
1.39198436,122.9406105,0.264907136
1.368523949,123.0382987,0.280058651
1.344086022,122.5010135,0.289833822
1.319648094,121.4264432,0.294721408
1.293255132,120.0588083,0.300097752
1.271749756,118.4469529,0.300097752
1.253176931,116.4931887,0.300097752
1.231671554,114.2463599,0.300097752
1.210166178,111.7553106,0.304985337
1.188660802,109.0688848,0.309872923
1.169110459,106.0405504,0.339687195
1.152492669,102.8168395,0.359726295
1.138807429,99.34890809,0.379765396
1.12512219,95.88097669,0.414956012
1.112414467,92.36420118,0.444770283
1.097751711,89.23817851,0.450146628
1.080156403,86.74712919,0.399804497
1.064516129,84.84220912,0.334799609
1.048875855,83.62110651,0.280058651
1.027370479,82.79075674,0.26001955
1.011730205,82.3023157,0.26001955
1.015640274,81.86271876,0.26001955
1.052785924,81.47196593,0.249755621
1.134897361,81.1300572,0.274682307
1.26686217,80.73930436,0.549853372
1.444770283,80.44623974,1.175464321
1.655913978,80.10433101,1.430596285
1.883675464,79.81126638,0.860215054
2.106549365,79.42051355,0.254643206
2.306940371,78.98091661,0.099706745
2.457478006,78.54131967,0.11485826
2.566959922,78.00403452,0.134897361
2.656891496,77.41790527,0.149560117
2.720430108,76.73408781,0.159824047
2.758553275,76.09911446,0.164711632
2.774193548,75.4641411,0.169599218
2.773216031,74.87801185,0.174975562
2.758553275,74.3407267,0.184750733
2.732160313,73.90112976,0.189638319
2.692082111,73.55922103,0.189638319
2.639296188,73.1684682,0.189638319
2.575757576,72.77771537,0.189638319
2.509286413,72.43580664,0.189638319
2.437927664,71.9962097,0.184750733
2.353861193,71.55661276,0.169599218
2.261974585,70.97048351,0.149560117
2.167155425,70.48204247,0.119745846
2.072336266,70.04244553,0.079667644
1.980449658,69.55400448,0.034701857
1.89540567,69.16325165,-0.01026393
1.820136852,69.30978396,-0.035190616
1.755620723,71.16585992,-0.050342131
1.701857283,76.44102319,-0.04056696
1.664711632,85.67255889,-0.000488759
1.638318671,96.80901467,0.054740958
1.616813294,106.7243678,0.119745846
1.598240469,114.0021394,0.174975562
1.578690127,118.8865498,0.224828935
1.559139785,122.256793,0.26001955
1.539589443,124.4059336,0.289833822
1.519061584,125.5781921,0.304985337
1.49657869,125.6758803,0.319648094
1.47311828,125.0409069,0.325024438
1.447702835,124.0640249,0.325024438
1.42228739,122.745234,0.325024438
1.396871945,121.2310668,0.329912023
1.372434018,119.3749908,0.325024438
1.352883675,117.2258503,0.325024438
1.338220919,114.9301774,0.325024438
1.322580645,112.3902839,0.325024438
1.305962854,109.5573259,0.345063539
1.289345064,106.4313032,0.365102639
1.27370479,103.06106,0.38514174
1.26001955,99.4954404,0.414956012
1.246334311,95.88097669,0.444770283
1.230694037,92.41304528,0.450146628
1.211143695,89.43355492,0.414956012
1.187683284,87.13788202,0.35483871
1.163245357,85.42833837,0.284946237
1.143695015,84.25607987,0.249755621
1.137829912,83.37688599,0.249755621
1.154447703,82.79075674,0.244868035
1.203323558,82.3511598,0.234604106
1.298142717,82.00925107,0.22971652
1.442815249,81.66734234,0.414956012
1.632453568,81.42312182,0.985337243
1.852394917,81.03236899,1.470674487
2.083088954,80.73930436,1.115347019
2.305962854,80.29970742,0.399804497
2.504398827,79.81126638,0.094819159
2.666666667,79.32282534,0.069892473
2.789833822,78.73669609,0.08455523
2.868035191,78.10172273,0.10459433
2.913000978,77.46674938,0.119745846
2.942326491,76.92946423,0.124633431
2.956989247,76.34333498,0.134897361
2.957966764,75.85489394,0.139784946
2.946236559,75.36645289,0.144672532
2.922776149,74.97570006,0.154936461
2.886608016,74.53610312,0.159824047
2.838709677,74.19419439,0.164711632
2.778103617,73.80344156,0.164711632
2.705767351,73.36384462,0.164711632
2.620723363,72.87540357,0.159824047
2.525904203,72.38696253,0.144672532
2.43597263,71.80083328,0.124633431
2.34799609,71.36123634,0.094819159
2.249266862,71.06817172,0.054740958
2.149560117,70.67741888,0.009775171
2.054740958,70.38435426,-0.035190616
1.968719453,70.48204247,-0.070381232
1.893450635,72.09389791,-0.090420332
1.826979472,77.02715244,-0.085532747
1.77028348,85.91677942,-0.045454545
1.722385142,97.00439108,0.014662757
1.683284457,107.3593412,0.079667644
1.649071359,115.1255538,0.144672532
1.622678397,120.3030288,0.199902248
1.600195503,123.8198043,0.234604106
1.575757576,126.1154772,0.26001955
1.551319648,127.4831122,0.280058651
1.52688172,127.873865,0.294721408
1.502443793,127.6784886,0.300097752
1.476050831,127.0435152,0.304985337
1.449657869,126.1154772,0.309872923
1.423264907,124.9432187,0.304985337
1.397849462,123.2825192,0.304985337
1.372434018,121.2799109,0.304985337
1.34799609,118.984238,0.304985337
1.330400782,116.3466564,0.309872923
1.314760508,113.4160101,0.325024438
1.2971652,110.1922992,0.349951124
1.28054741,106.822056,0.365102639
1.263929619,103.2564364,0.390029326
1.248289345,99.59312861,0.424731183
1.231671554,95.9786649,0.434995112
1.211143695,92.75495401,0.414956012
1.187683284,89.92199597,0.359726295
1.16226784,87.72401127,0.289833822
1.140762463,86.16099994,0.249755621
1.132942326,85.03758554,0.234604106
1.151515152,84.25607987,0.234604106
1.19257087,83.62110651,0.23998045
1.267839687,83.13266547,0.22971652
1.396871945,82.69306853,0.334799609
1.572825024,82.3023157,0.810361681
1.783968719,82.00925107,1.375855327
2.011730205,81.66734234,1.405669599
2.23655914,81.37427772,0.504887586
2.440860215,81.03236899,0.11485826
2.611925709,80.73930436,0.064516129
2.746823069,80.44623974,0.08455523
2.845552297,80.0554869,0.099706745
2.91202346,79.61588996,0.11485826
2.94916911,78.98091661,0.124633431
2.964809384,78.29709915,0.129521017
2.96969697,77.46674938,0.134897361
2.963831867,76.73408781,0.144672532
2.947214076,76.00142625,0.144672532
2.919843597,75.31760879,0.149560117
2.879765396,74.78032364,0.154936461
2.826001955,74.43841491,0.154936461
2.758553275,74.09650618,0.149560117
2.678396872,73.85228566,0.149560117
2.585532747,73.60806514,0.139784946
2.483870968,73.31500051,0.119745846
2.376344086,72.87540357,0.089931574
2.278592375,72.28927432,0.054740958
2.189638319,71.75198918,0.009775171
2.094819159,71.16585992,-0.035190616
2.002932551,70.8727953,-0.075268817
1.920821114,71.75198918,-0.095307918
1.849462366,75.415297,-0.095307918
1.788856305,83.03497726,-0.065493646
1.738025415,93.68299199,-0.01026393
1.695014663,104.5752272,0.059628543
1.65884653,113.3183219,0.119745846
1.627565982,119.3749908,0.174975562
1.598240469,123.4778956,0.214565005
1.575757576,126.3108536,0.249755621
1.556207234,127.9227091,0.269794721
1.53372434,128.5088383,0.289833822
1.508308895,128.3134619,0.294721408
1.481915934,127.6296445,0.300097752
1.453567937,126.5550742,0.300097752
1.424242424,125.2851275,0.300097752
1.394916911,123.673272,0.300097752
1.365591398,121.7195078,0.294721408
1.338220919,119.4238349,0.300097752
1.312805474,116.7862533,0.300097752
1.289345064,113.9044512,0.314760508
1.267839687,110.7295844,0.339687195
1.253176931,107.3104971,0.359726295
1.242424242,103.5983452,0.379765396
1.22971652,99.88619324,0.414956012
1.215053763,96.0763531,0.434995112
1.197458456,92.6572658,0.439882698
1.174975562,89.82430776,0.390029326
1.1485826,87.62632306,0.319648094
1.123167155,86.06331173,0.26001955
1.106549365,84.98874143,0.23998045
1.110459433,84.30492397,0.234604106
1.150537634,83.81648293,0.234604106
1.23655914,83.4257301,0.224828935
1.347018573,83.03497726,0.264907136
1.485826002,82.74191264,0.585043988
1.675464321,82.44884801,1.205278592
1.894428152,82.10693928,1.385630499
2.120234604,81.71618645,0.730205279
2.331378299,81.27658951,0.189638319
2.514173998,80.88583668,0.064516129
2.660801564,80.34855153,0.074780059
2.771260997,79.81126638,0.089931574
2.848484848,79.22513713,0.099706745
2.897360704,78.59016377,0.10459433
2.923753666,78.00403452,0.10459433
2.931573803,77.36906117,0.109481916
2.923753666,76.73408781,0.119745846
2.903225806,76.24564677,0.124633431
2.873900293,75.80604983,0.119745846
2.832844575,75.36645289,0.11485826
2.780058651,74.92685595,0.109481916
2.714565005,74.48725902,0.099706745
2.637341153,74.09650618,0.08455523
2.548387097,73.75459745,0.074780059
2.449657869,73.41268872,0.059628543
2.346041056,72.97309178,0.034701857
2.239491691,72.53349484,0.004398827
2.134897361,71.9962097,-0.045454545
2.045943304,71.50776865,-0.090420332
1.968719453,71.11701582,-0.135386119
1.893450635,71.50776865,-0.160312805
1.824046921,73.85228566,-0.175464321
1.762463343,79.66473407,-0.160312805
1.708699902,88.84742567,-0.110459433
1.663734115,99.4465963,-0.050342131
1.624633431,108.7269761,0.014662757
1.590420332,115.7605271,0.064516129
1.561094819,120.6937817,0.099706745
1.53372434,124.0640249,0.129521017
1.506353861,126.2620095,0.149560117
1.479960899,127.2388916,0.169599218
1.457478006,127.2877357,0.174975562
1.437927664,126.5062301,0.174975562
1.41544477,125.2851275,0.179863148
1.390029326,123.7221161,0.179863148
1.363636364,121.8660402,0.184750733
1.336265885,119.7657437,0.189638319
1.309872923,117.3235385,0.184750733
1.283479961,114.783645,0.189638319
1.258064516,112.0483752,0.204789834
1.235581623,109.1177289,0.224828935
1.215053763,105.9428622,0.234604106
1.197458456,102.4749308,0.264907136
1.186705767,98.86046705,0.309872923
1.177908113,95.09947102,0.329912023
1.164222874,91.63153962,0.309872923
1.146627566,88.50551694,0.264907136
1.124144673,86.11215583,0.199902248
1.099706745,84.30492397,0.149560117
1.079178886,83.03497726,0.134897361
1.073313783,82.3023157,0.134897361
1.093841642,81.81387466,0.139784946
1.153470186,81.47196593,0.129521017
1.260997067,81.27658951,0.174975562
1.41544477,81.1789013,0.535190616
1.609970674,80.98352488,1.105571848
1.797653959,80.78814847,1.205278592
1.977517107,80.44623974,0.404692082
2.173020528,79.86011049,-0.005376344
2.358748778,79.22513713,-0.045454545
2.516129032,78.54131967,-0.005376344
2.637341153,77.85750221,0.009775171
2.724340176,77.12484065,0.019550342
2.781036168,76.44102319,0.034701857
2.813294233,75.80604983,0.044477028
2.825024438,75.31760879,0.054740958
2.820136852,74.92685595,0.059628543
2.801564027,74.68263543,0.059628543
2.774193548,74.48725902,0.064516129
2.738025415,74.43841491,0.069892473
2.68914956,74.3407267,0.074780059
2.627565982,74.2918826,0.079667644
2.554252199,74.19419439,0.069892473
2.469208211,73.85228566,0.054740958
2.373411535,73.36384462,0.039589443
2.269794721,72.63118305,0.019550342
2.16226784,71.80083328,-0.015151515
2.054740958,70.9216394,-0.055229717
1.94916911,70.18897784,-0.095307918
1.8514174,69.65169269,-0.125610948
1.76344086,69.84706911,-0.15542522
1.695014663,71.94736559,-0.15542522
1.641251222,77.56443758,-0.130498534
1.589442815,87.04019381,-0.085532747
1.543499511,98.42087011,-0.020527859
1.505376344,108.6292879,0.034701857
1.47311828,116.0047476,0.08455523
1.445747801,120.7914699,0.129521017
1.420332356,124.0151807,0.164711632
1.394916911,125.7247244,0.195014663
1.370478983,126.1643213,0.209677419
1.345063539,125.5781921,0.224828935
1.319648094,124.3570895,0.23998045
1.299120235,122.9894546,0.244868035
1.281524927,121.4264432,0.249755621
1.258064516,119.7657437,0.254643206
1.232649071,117.8119795,0.254643206
1.207233627,115.7605271,0.254643206
1.170087977,113.4160101,0.26001955
1.128054741,110.8761167,0.274682307
1.097751711,107.9454704,0.300097752
1.0742913,104.6240714,0.319648094
1.054740958,101.0096076,0.349951124
1.038123167,97.24861161,0.38514174
1.021505376,93.48761558,0.399804497
1.002932551,90.16621649,0.38514174
0.989247312,87.47979075,0.334799609
0.975562072,85.57487069,0.269794721
0.95601173,84.30492397,0.22971652
0.938416422,83.4745742,0.219941349
0.933528837,82.93728905,0.219941349
0.953079179,82.54653622,0.219941349
1.010752688,82.25347159,0.214565005
1.116324536,82.05809518,0.274682307
1.272727273,81.91156286,0.670087977
1.47311828,81.81387466,1.275659824
1.701857283,81.66734234,1.380742913
1.938416422,81.42312182,0.580156403
2.138807429,81.1300572,0.134897361
2.303030303,80.73930436,0.074780059
2.454545455,80.15317511,0.099706745
2.57771261,79.56704586,0.119745846
2.666666667,78.78554019,0.134897361
2.723362659,78.19941094,0.144672532
2.753665689,77.46674938,0.149560117
2.764418377,76.92946423,0.154936461
2.758553275,76.29449087,0.164711632
2.73998045,75.80604983,0.169599218
2.708699902,75.415297,0.174975562
2.664711632,74.97570006,0.184750733
2.61485826,74.53610312,0.184750733
2.558162268,74.04766208,0.189638319
2.486803519,73.51037693,0.189638319
2.400782014,72.92424768,0.174975562
2.304985337,72.48465074,0.159824047
2.203323558,72.09389791,0.139784946
2.099706745,71.80083328,0.10459433
1.998044966,71.55661276,0.064516129
1.902248289,71.31239224,0.019550342
1.817204301,71.06817172,-0.01026393
1.744868035,71.50776865,-0.04056696
1.685239492,74.2918826,-0.045454545
1.635386119,80.93468078,-0.015151515
1.599217986,91.04541036,0.029814272
1.571847507,102.0353338,0.089931574
1.546432063,111.1691813,0.149560117
1.524926686,117.567759,0.199902248
1.504398827,121.9148843,0.244868035
1.483870968,124.8455305,0.274682307
1.463343109,126.7016065,0.294721408
1.441837732,127.2877357,0.309872923
1.420332356,127.0435152,0.319648094
1.397849462,126.3108536,0.329912023
1.374389052,125.3828157,0.329912023
1.350928641,124.112869,0.334799609
1.332355816,122.5987017,0.334799609
1.315738025,120.7914699,0.334799609
1.296187683,118.6911734,0.329912023
1.277614858,116.3466564,0.329912023
1.258064516,113.6602306,0.339687195
1.239491691,110.8272726,0.359726295
1.221896383,107.8477822,0.379765396
1.205278592,104.8682919,0.390029326
1.189638319,101.5957369,0.424731183
1.173998045,97.93242907,0.455034213
1.156402737,93.92721252,0.459921799
1.135874878,90.16621649,0.419843597
1.112414467,87.18672613,0.35483871
1.093841642,85.23296196,0.294721408
1.082111437,84.25607987,0.264907136
1.080156403,83.71879472,0.26001955
1.103616813,83.4745742,0.26001955
1.166177908,83.18150958,0.254643206
1.279569892,82.49769212,0.249755621
1.443792766,81.61849824,0.455034213
1.65200391,80.88583668,1.055229717
1.885630499,80.44623974,1.500977517
2.12512219,80.0554869,1.105571848
2.349951124,79.66473407,0.394916911
2.545454545,79.61588996,0.10459433
2.688172043,79.90895459,0.08455523
2.788856305,80.34855153,0.10459433
2.870967742,80.44623974,0.119745846
2.928641251,79.61588996,0.129521017
2.963831867,78.24825504,0.134897361
2.979472141,76.92946423,0.144672532
2.979472141,75.85489394,0.149560117
2.965786901,74.97570006,0.154936461
2.938416422,74.19419439,0.159824047
2.898338221,73.41268872,0.159824047
2.84457478,72.92424768,0.164711632
2.778103617,72.72887126,0.169599218
2.697947214,73.1196241,0.164711632
2.617790811,73.75459745,0.164711632
2.53372434,74.48725902,0.154936461
2.434995112,75.07338827,0.129521017
2.328445748,75.12223237,0.099706745
2.219941349,74.48725902,0.054740958
2.114369501,73.2173123,0.009775171
2.014662757,71.80083328,-0.035190616
1.924731183,70.8727953,-0.065493646
1.846529814,71.84967738,-0.080645161
1.780058651,76.53871139,-0.070381232
1.724340176,85.18411785,-0.035190616
1.677419355,95.88097669,0.029814272
1.642228739,105.845174,0.099706745
1.61485826,113.806763,0.159824047
1.586510264,120.0588083,0.209677419
1.559139785,124.8455305,0.249755621
1.531769306,128.2646178,0.274682307
1.50342131,130.3160702,0.294721408
1.475073314,131.1952641,0.304985337
1.446725318,130.9510436,0.309872923
1.418377322,129.7299409,0.314760508
1.390029326,127.9715532,0.314760508
1.363636364,126.0666331,0.319648094
1.337243402,124.0640249,0.319648094
1.311827957,122.0125725,0.319648094
1.293255132,119.912276,0.314760508
1.277614858,117.8119795,0.309872923
1.258064516,115.3209302,0.319648094
1.237536657,112.5368162,0.349951124
1.217986315,109.5573259,0.369990225
1.198435973,106.2359268,0.390029326
1.179863148,102.6214631,0.424731183
1.159335288,99.10468757,0.444770283
1.136852395,96.22288542,0.450146628
1.11143695,94.17143304,0.399804497
1.084066471,92.16882476,0.334799609
1.061583578,89.72661955,0.269794721
1.053763441,87.38210254,0.244868035
1.065493646,85.91677942,0.23998045
1.109481916,85.47718248,0.244868035
1.200391007,85.37949427,0.234604106
1.343108504,85.23296196,0.264907136
1.535679374,85.28180606,0.555229717
1.76344086,85.57487069,1.18572825
2.007820137,85.62371479,1.430596285
2.247311828,84.93989733,0.855327468
2.462365591,83.62110651,0.244868035
2.642228739,82.10693928,0.074780059
2.782991202,80.73930436,0.079667644
2.886608016,79.37166944,0.094819159
2.951124145,77.46674938,0.109481916
2.986314761,75.17107648,0.119745846
3.008797654,73.2173123,0.129521017
3.016617791,72.92424768,0.134897361
3.012707722,74.19419439,0.144672532
2.997067449,75.65951752,0.149560117
2.967741935,76.48986729,0.154936461
2.923753666,77.02715244,0.154936461
2.866080156,77.56443758,0.159824047
2.794721408,77.61328169,0.159824047
2.708699902,76.78293192,0.154936461
2.609970674,75.61067341,0.144672532
2.515151515,74.09650618,0.129521017
2.42228739,72.63118305,0.109481916
2.316715543,71.36123634,0.074780059
2.206256109,70.72626299,0.034701857
2.096774194,70.53088657,-0.01026393
1.99315738,70.67741888,-0.050342131
1.899315738,71.60545686,-0.080645161
1.818181818,74.68263543,-0.090420332
1.749755621,81.1300572,-0.080645161
1.692082111,90.80118984,-0.04056696
1.644183773,101.7422692,0.024437928
1.605083089,111.4134018,0.094819159
1.571847507,118.7400175,0.154936461
1.546432063,123.8198043,0.199902248
1.524926686,126.8481388,0.234604106
1.501466276,128.362306,0.26001955
1.477028348,128.6065265,0.280058651
1.451612903,128.1669296,0.294721408
1.424242424,127.3854239,0.294721408
1.394916911,126.4085419,0.300097752
1.365591398,125.3828157,0.300097752
1.335288368,124.3082454,0.300097752
1.306940371,123.0382987,0.300097752
1.278592375,121.5729755,0.294721408
1.252199413,119.4726791,0.294721408
1.232649071,116.9327856,0.294721408
1.217008798,114.0509835,0.300097752
1.198435973,111.0714931,0.329912023
1.180840665,107.8477822,0.349951124
1.164222874,104.1844744,0.369990225
1.1485826,100.228102,0.404692082
1.132942326,96.41826183,0.424731183
1.113391984,93.34108326,0.430107527
1.088954057,90.85003395,0.38514174
1.061583578,88.79858157,0.314760508
1.038123167,87.13788202,0.254643206
1.03030303,85.81909121,0.22971652
1.052785924,84.79336502,0.22971652
1.101661779,84.06070345,0.22971652
1.186705767,83.4745742,0.219941349
1.327468231,82.98613316,0.244868035
1.518084066,82.44884801,0.524926686
1.742913001,81.81387466,1.140273705
1.983382209,81.1789013,1.395894428
2.217986315,80.59277205,0.835288368
2.428152493,80.0554869,0.22971652
2.602150538,79.46935765,0.064516129
2.737047898,78.78554019,0.059628543
2.833822092,77.85750221,0.08455523
2.899315738,76.53871139,0.094819159
2.933528837,75.31760879,0.099706745
2.947214076,74.87801185,0.10459433
2.950146628,75.12223237,0.109481916
2.942326491,75.4641411,0.10459433
2.921798631,75.56182931,0.109481916
2.889540567,75.4641411,0.109481916
2.843597263,75.31760879,0.11485826
2.783968719,74.92685595,0.11485826
2.709677419,74.48725902,0.109481916
2.62170088,74.09650618,0.099706745
2.522971652,73.90112976,0.08455523
2.41544477,74.19419439,0.064516129
2.302052786,74.97570006,0.039589443
2.200391007,75.85489394,0.009775171
2.106549365,75.65951752,-0.03030303
2.007820137,73.90112976,-0.075268817
1.91202346,71.80083328,-0.115347019
1.825024438,70.97048351,-0.150537634
1.748778104,72.77771537,-0.16568915
1.685239492,77.80865811,-0.15542522
1.631476051,85.91677942,-0.110459433
1.586510264,95.44137975,-0.050342131
1.54740958,104.477539,0.019550342
1.513196481,112.6833486,0.074780059
1.483870968,120.1564965,0.109481916
1.461388074,126.1154772,0.139784946
1.440860215,129.4857204,0.154936461
1.417399804,130.8533553,0.169599218
1.391006843,131.0487318,0.184750733
1.362658847,129.2414999,0.195014663
1.332355816,125.3828157,0.199902248
1.302052786,121.5729755,0.199902248
